  radius   |   mu   |   psi   |   phi   |   pressure   |   rho   |  indepres |   res1   |   res2   |   res3   |   res4   |  
0.000000e+00 -1.199755e-36 0.000000e+00 1.290642e-02 1.119964e+01 1.885465e+01 0.000000e+00 0.000000e+00 0.000000e+00 0.000000e+00 0.000000e+00
6.575962e-04 2.248052e-08 -1.419611e-02 1.290175e-02 1.119617e+01 1.885270e+01 inf 3.416202e-05 -6.102826e-03 -6.354302e-02 -6.085514e-06
1.315192e-03 2.247594e-07 -2.836787e-02 1.288775e-02 1.119012e+01 1.884931e+01 -4.174484e-05 3.409684e-05 4.337020e-04 -2.715106e-02 -9.307416e-06
1.972788e-03 7.864330e-07 -4.250241e-02 1.286445e-02 1.118062e+01 1.884397e+01 -4.407719e-05 3.398919e-05 4.863843e-04 -1.766279e-02 -1.393254e-05
2.630385e-03 1.886708e-06 -5.658122e-02 1.283187e-02 1.116755e+01 1.883663e+01 -4.468405e-05 3.383908e-05 6.024198e-04 -1.313949e-02 -1.848688e-05
3.287981e-03 3.704209e-06 -7.058607e-02 1.279006e-02 1.115089e+01 1.882726e+01 -4.489464e-05 3.364669e-05 6.680422e-04 -1.047412e-02 -2.305620e-05
3.945577e-03 6.416788e-06 -8.449871e-02 1.273907e-02 1.113063e+01 1.881585e+01 -4.495296e-05 3.341232e-05 7.102978e-04 -8.713094e-03 -2.764079e-05
4.603173e-03 1.020134e-05 -9.830078e-02 1.267896e-02 1.110677e+01 1.880239e+01 -4.493344e-05 3.313636e-05 7.415729e-04 -7.461797e-03 -3.223969e-05
5.260769e-03 1.523359e-05 -1.119739e-01 1.260983e-02 1.107932e+01 1.878689e+01 -4.486528e-05 3.281925e-05 7.675016e-04 -6.526543e-03 -3.685290e-05
5.918365e-03 2.168796e-05 -1.254996e-01 1.253175e-02 1.104830e+01 1.876934e+01 -4.476184e-05 3.246153e-05 7.908502e-04 -5.800917e-03 -4.148102e-05
6.575962e-03 2.973732e-05 -1.388594e-01 1.244483e-02 1.101374e+01 1.874975e+01 -4.462987e-05 3.206379e-05 8.130569e-04 -5.221526e-03 -4.612507e-05
7.233558e-03 3.955284e-05 -1.520346e-01 1.234918e-02 1.097565e+01 1.872811e+01 -4.447303e-05 3.162669e-05 8.348825e-04 -4.748228e-03 -5.078622e-05
7.891154e-03 5.130381e-05 -1.650068e-01 1.224494e-02 1.093406e+01 1.870442e+01 -4.429337e-05 3.115097e-05 8.567055e-04 -4.354358e-03 -5.546575e-05
8.548750e-03 6.515746e-05 -1.777570e-01 1.213224e-02 1.088900e+01 1.867870e+01 -4.409207e-05 3.063740e-05 8.786637e-04 -4.021502e-03 -6.016492e-05
9.206346e-03 8.127878e-05 -1.902666e-01 1.201123e-02 1.084051e+01 1.865093e+01 -4.386978e-05 3.008684e-05 9.007231e-04 -3.736535e-03 -6.488489e-05
9.863942e-03 9.983037e-05 -2.025167e-01 1.188209e-02 1.078862e+01 1.862112e+01 -4.362683e-05 2.950019e-05 9.227102e-04 -3.489846e-03 -6.962666e-05
1.052154e-02 1.209722e-04 -2.144883e-01 1.174497e-02 1.073337e+01 1.858928e+01 -4.336336e-05 2.887841e-05 9.443234e-04 -3.274235e-03 -7.439094e-05
1.117913e-02 1.448616e-04 -2.261623e-01 1.160009e-02 1.067479e+01 1.855540e+01 -4.307936e-05 2.822253e-05 9.651334e-04 -3.084199e-03 -7.917807e-05
1.183673e-02 1.716530e-04 -2.375196e-01 1.144763e-02 1.061294e+01 1.851949e+01 -4.277474e-05 2.753359e-05 9.845751e-04 -2.915464e-03 -8.398786e-05
1.249433e-02 2.014977e-04 -2.485409e-01 1.128782e-02 1.054785e+01 1.848156e+01 -4.244934e-05 2.681272e-05 1.001934e-03 -2.764652e-03 -8.881946e-05
1.315192e-02 2.345438e-04 -2.592070e-01 1.112087e-02 1.047958e+01 1.844160e+01 -4.210297e-05 2.606107e-05 1.016328e-03 -2.629063e-03 -9.367114e-05
1.380952e-02 2.709361e-04 -2.694983e-01 1.094703e-02 1.040817e+01 1.839961e+01 -4.173541e-05 2.527982e-05 1.026688e-03 -2.506508e-03 -9.854012e-05
1.446712e-02 3.108161e-04 -2.793955e-01 1.076656e-02 1.033367e+01 1.835561e+01 -4.134643e-05 2.447022e-05 1.031739e-03 -2.395193e-03 -1.034223e-04
1.512471e-02 3.543213e-04 -2.888791e-01 1.057971e-02 1.025614e+01 1.830959e+01 -4.093579e-05 2.363353e-05 1.029968e-03 -2.293632e-03 -1.083119e-04
1.578231e-02 4.015859e-04 -2.979293e-01 1.038677e-02 1.017564e+01 1.826155e+01 -4.050325e-05 2.277104e-05 1.019612e-03 -2.200582e-03 -1.132013e-04
1.643990e-02 4.527398e-04 -3.065268e-01 1.018802e-02 1.009221e+01 1.821151e+01 -4.004859e-05 2.188406e-05 9.986293e-04 -2.114993e-03 -1.180804e-04
1.709750e-02 5.079093e-04 -3.146520e-01 9.983782e-03 1.000593e+01 1.815946e+01 -3.957159e-05 2.097394e-05 9.646883e-04 -2.035967e-03 -1.229367e-04
1.775510e-02 5.672164e-04 -3.222854e-01 9.774358e-03 9.916840e+00 1.810541e+01 -3.907205e-05 2.004201e-05 9.151542e-04 -1.962734e-03 -1.277543e-04
1.841269e-02 6.307790e-04 -3.294077e-01 9.560083e-03 9.825017e+00 1.804935e+01 -3.854981e-05 1.908964e-05 8.470903e-04 -1.894621e-03 -1.325137e-04
1.907029e-02 6.987104e-04 -3.360001e-01 9.341298e-03 9.730521e+00 1.799130e+01 -3.800472e-05 1.811819e-05 7.572709e-04 -1.831037e-03 -1.371915e-04
1.972788e-02 7.711201e-04 -3.420436e-01 9.118358e-03 9.633417e+00 1.793125e+01 -3.743665e-05 1.712900e-05 6.422124e-04 -1.771458e-03 -1.417597e-04
2.038548e-02 8.481125e-04 -3.475202e-01 8.891631e-03 9.533773e+00 1.786921e+01 -3.684555e-05 1.612341e-05 4.982254e-04 -1.715412e-03 -1.461853e-04
2.104308e-02 9.297879e-04 -3.524119e-01 8.661495e-03 9.431657e+00 1.780519e+01 -3.623136e-05 1.510274e-05 3.214956e-04 -1.662474e-03 -1.504300e-04
2.170067e-02 1.016242e-03 -3.567020e-01 8.428339e-03 9.327138e+00 1.773917e+01 -3.559408e-05 1.406828e-05 1.081938e-04 -1.612252e-03 -1.544499e-04
2.235827e-02 1.107564e-03 -3.603743e-01 8.192566e-03 9.220290e+00 1.767117e+01 -3.493377e-05 1.302127e-05 -1.453774e-04 -1.564386e-03 -1.581952e-04
2.301587e-02 1.203842e-03 -3.634138e-01 7.954586e-03 9.111182e+00 1.760119e+01 -3.425052e-05 1.196292e-05 -4.426002e-04 -1.518543e-03 -1.616105e-04
2.367346e-02 1.305157e-03 -3.658068e-01 7.714820e-03 8.999891e+00 1.752923e+01 -3.354446e-05 1.089435e-05 -7.863210e-04 -1.474410e-03 -1.646347e-04
2.433106e-02 1.411584e-03 -3.675413e-01 7.473696e-03 8.886490e+00 1.745530e+01 -3.281577e-05 9.816636e-06 -1.178595e-03 -1.431697e-03 -1.672020e-04
2.498865e-02 1.523194e-03 -3.686070e-01 7.231652e-03 8.771056e+00 1.737939e+01 -3.206466e-05 8.730775e-06 -1.620401e-03 -1.390136e-03 -1.692422e-04
2.564625e-02 1.640055e-03 -3.689957e-01 6.989130e-03 8.653666e+00 1.730151e+01 -3.129140e-05 7.637671e-06 -2.111349e-03 -1.349479e-03 -1.706823e-04
2.630385e-02 1.762227e-03 -3.687017e-01 6.746576e-03 8.534399e+00 1.722165e+01 -3.049624e-05 6.538136e-06 -2.649375e-03 -1.309502e-03 -1.714481e-04
2.696144e-02 1.889768e-03 -3.677219e-01 6.504442e-03 8.413336e+00 1.713983e+01 -2.967948e-05 5.432881e-06 -3.230469e-03 -1.270010e-03 -1.714660e-04
2.761904e-02 2.022727e-03 -3.660563e-01 6.263177e-03 8.290557e+00 1.705605e+01 -2.884136e-05 4.322518e-06 -3.848451e-03 -1.230833e-03 -1.706655e-04
2.827663e-02 2.161151e-03 -3.637079e-01 6.023232e-03 8.166146e+00 1.697030e+01 -2.798215e-05 3.207552e-06 -4.494824e-03 -1.191838e-03 -1.689817e-04
2.893423e-02 2.305080e-03 -3.606837e-01 5.785053e-03 8.040184e+00 1.688259e+01 -2.710202e-05 2.088389e-06 -5.158730e-03 -1.152924e-03 -1.663585e-04
2.959183e-02 2.454551e-03 -3.569940e-01 5.549082e-03 7.912759e+00 1.679293e+01 -2.620109e-05 9.653405e-07 -5.827047e-03 -1.114033e-03 -1.627513e-04
3.024942e-02 2.609595e-03 -3.526533e-01 5.315751e-03 7.783956e+00 1.670131e+01 -2.527938e-05 -1.613695e-07 -6.484633e-03 -1.075142e-03 -1.581297e-04
3.090702e-02 2.770235e-03 -3.476801e-01 5.085483e-03 7.653863e+00 1.660775e+01 -2.433677e-05 -1.291589e-06 -7.114734e-03 -1.036270e-03 -1.524808e-04
3.156462e-02 2.936492e-03 -3.420970e-01 4.858686e-03 7.522568e+00 1.651224e+01 -2.337304e-05 -2.425223e-06 -7.699543e-03 -9.974728e-04 -1.458106e-04
3.222221e-02 3.108381e-03 -3.359306e-01 4.635752e-03 7.390162e+00 1.641478e+01 -2.238778e-05 -3.562217e-06 -8.220901e-03 -9.588391e-04 -1.381460e-04
3.287981e-02 3.285910e-03 -3.292116e-01 4.417054e-03 7.256735e+00 1.631540e+01 -2.138046e-05 -4.702532e-06 -8.661085e-03 -9.204851e-04 -1.295357e-04
3.353740e-02 3.469085e-03 -3.219745e-01 4.202945e-03 7.122380e+00 1.621408e+01 -2.035037e-05 -5.846132e-06 -9.003651e-03 -8.825465e-04 -1.200495e-04
3.419500e-02 3.657903e-03 -3.142573e-01 3.993753e-03 6.987190e+00 1.611083e+01 -1.929667e-05 -6.992955e-06 -9.234255e-03 -8.451700e-04 -1.097780e-04
3.485260e-02 3.852358e-03 -3.061008e-01 3.789781e-03 6.851259e+00 1.600567e+01 -1.821842e-05 -8.142903e-06 -9.341405e-03 -8.085029e-04 -9.882983e-05
3.551019e-02 4.052438e-03 -2.975491e-01 3.591302e-03 6.714681e+00 1.589860e+01 -1.711458e-05 -9.295823e-06 -9.317067e-03 -7.726843e-04 -8.732936e-05
3.616779e-02 4.258124e-03 -2.886481e-01 3.398561e-03 6.577551e+00 1.578963e+01 -1.598403e-05 -1.045149e-05 -9.157094e-03 -7.378356e-04 -7.541287e-05
3.682538e-02 4.469393e-03 -2.794454e-01 3.211773e-03 6.439964e+00 1.567876e+01 -1.482567e-05 -1.160962e-05 -8.861434e-03 -7.040532e-04 -6.322463e-05
3.748298e-02 4.686217e-03 -2.699898e-01 3.031120e-03 6.302016e+00 1.556600e+01 -1.363838e-05 -1.276984e-05 -8.434111e-03 -6.714026e-04 -5.091248e-05
3.814058e-02 4.908561e-03 -2.603305e-01 2.856752e-03 6.163802e+00 1.545136e+01 -1.242110e-05 -1.393170e-05 -7.882979e-03 -6.399149e-04 -3.862363e-05
3.879817e-02 5.136385e-03 -2.505168e-01 2.688786e-03 6.025417e+00 1.533485e+01 -1.117283e-05 -1.509470e-05 -7.219297e-03 -6.095856e-04 -2.650045e-05
3.945577e-02 5.369643e-03 -2.405970e-01 2.527309e-03 5.886956e+00 1.521648e+01 -9.892686e-06 -1.625826e-05 -6.457134e-03 -5.803748e-04 -1.467683e-05
4.011337e-02 5.608285e-03 -2.306186e-01 2.372374e-03 5.748512e+00 1.509625e+01 -8.579852e-06 -1.742177e-05 -5.612686e-03 -5.522107e-04 -3.275065e-06
4.077096e-02 5.852253e-03 -2.206270e-01 2.224006e-03 5.610178e+00 1.497417e+01 -7.233630e-06 -1.858459e-05 -4.703544e-03 -5.249931e-04 7.596614e-06
4.142856e-02 6.101485e-03 -2.106659e-01 2.082197e-03 5.472045e+00 1.485025e+01 -5.853404e-06 -1.974607e-05 -3.747958e-03 -4.985989e-04 1.784572e-05
4.208615e-02 6.355911e-03 -2.007761e-01 1.946916e-03 5.334205e+00 1.472450e+01 -4.438632e-06 -2.090555e-05 -2.764160e-03 -4.728878e-04 2.739652e-05
4.274375e-02 6.615459e-03 -1.909959e-01 1.818102e-03 5.196747e+00 1.459691e+01 -2.988816e-06 -2.206240e-05 -1.769756e-03 -4.477079e-04 3.619032e-05
4.340135e-02 6.880047e-03 -1.813605e-01 1.695672e-03 5.059759e+00 1.446751e+01 -1.503471e-06 -2.321602e-05 -7.812292e-04 -4.229015e-04 4.418520e-05
4.405894e-02 7.149590e-03 -1.719018e-01 1.579520e-03 4.923327e+00 1.433629e+01 1.791411e-08 -2.436586e-05 1.864430e-04 -3.983096e-04 5.135524e-05
4.471654e-02 7.423997e-03 -1.626485e-01 1.469521e-03 4.787535e+00 1.420325e+01 1.575918e-06 -2.551143e-05 1.120060e-03 -3.737767e-04 5.768929e-05
4.537413e-02 7.703170e-03 -1.536260e-01 1.365530e-03 4.652467e+00 1.406841e+01 3.171232e-06 -2.665232e-05 2.008358e-03 -3.491536e-04 6.318958e-05
4.603173e-02 7.987006e-03 -1.448562e-01 1.267390e-03 4.518203e+00 1.393175e+01 4.804708e-06 -2.778818e-05 2.842068e-03 -3.243000e-04 6.787007e-05
4.668933e-02 8.275395e-03 -1.363580e-01 1.174927e-03 4.384824e+00 1.379329e+01 6.477406e-06 -2.891875e-05 3.613902e-03 -2.990864e-04 7.175473e-05
4.734692e-02 8.568223e-03 -1.281467e-01 1.087958e-03 4.252407e+00 1.365302e+01 8.190649e-06 -3.004388e-05 4.318466e-03 -2.733945e-04 7.487587e-05
4.800452e-02 8.865368e-03 -1.202349e-01 1.006291e-03 4.121027e+00 1.351094e+01 9.946069e-06 -3.116348e-05 4.952130e-03 -2.471181e-04 7.727244e-05
4.866212e-02 9.166705e-03 -1.126323e-01 9.297248e-04 3.990758e+00 1.336705e+01 1.174567e-05 -3.227760e-05 5.512864e-03 -2.201623e-04 7.898849e-05
4.931971e-02 9.472098e-03 -1.053456e-01 8.580541e-04 3.861673e+00 1.322135e+01 1.359187e-05 -3.338635e-05 6.000054e-03 -1.924431e-04 8.007179e-05
4.997731e-02 9.781411e-03 -9.837914e-02 7.910698e-04 3.733842e+00 1.307382e+01 1.548759e-05 -3.448999e-05 6.414313e-03 -1.638869e-04 8.057247e-05
5.063490e-02 1.009450e-02 -9.173501e-02 7.285606e-04 3.607333e+00 1.292447e+01 1.743629e-05 -3.558885e-05 6.757293e-03 -1.344288e-04 8.054199e-05
5.129250e-02 1.041121e-02 -8.541305e-02 6.703147e-04 3.482212e+00 1.277327e+01 1.944202e-05 -3.668341e-05 7.031501e-03 -1.040120e-04 8.003212e-05
5.195010e-02 1.073138e-02 -7.941121e-02 6.161208e-04 3.358544e+00 1.262024e+01 2.150956e-05 -3.777423e-05 7.240129e-03 -7.258633e-05 7.909416e-05
5.260769e-02 1.105486e-02 -7.372575e-02 5.657697e-04 3.236393e+00 1.246534e+01 2.364443e-05 -3.886204e-05 7.386904e-03 -4.010746e-05 7.777827e-05
5.326529e-02 1.138148e-02 -6.835140e-02 5.190550e-04 3.115819e+00 1.230858e+01 2.585299e-05 -3.994767e-05 7.475941e-03 -6.535611e-06 7.613292e-05
5.392288e-02 1.171105e-02 -6.328159e-02 4.757743e-04 2.996881e+00 1.214993e+01 2.814258e-05 -4.103213e-05 7.511628e-03 2.816524e-05 7.420446e-05
5.458048e-02 1.204339e-02 -5.850859e-02 4.357299e-04 2.879638e+00 1.198937e+01 3.052155e-05 -4.211658e-05 7.498514e-03 6.402825e-05 7.203683e-05
5.523808e-02 1.237833e-02 -5.402374e-02 3.987295e-04 2.764144e+00 1.182689e+01 3.299942e-05 -4.320235e-05 7.441222e-03 1.010844e-04 6.967129e-05
5.589567e-02 1.271566e-02 -4.981758e-02 3.645867e-04 2.650453e+00 1.166247e+01 3.558698e-05 -4.429098e-05 7.344371e-03 1.393632e-04 6.714632e-05
5.655327e-02 1.305517e-02 -4.588000e-02 3.331215e-04 2.538619e+00 1.149608e+01 3.829643e-05 -4.538426e-05 7.212510e-03 1.788931e-04 6.449745e-05
5.721087e-02 1.339667e-02 -4.220041e-02 3.041608e-04 2.428691e+00 1.132769e+01 4.114151e-05 -4.648421e-05 7.050069e-03 2.197019e-04 6.175732e-05
5.786846e-02 1.373994e-02 -3.876784e-02 2.775386e-04 2.320718e+00 1.115727e+01 4.413767e-05 -4.759316e-05 6.861315e-03 2.618173e-04 5.895559e-05
5.852606e-02 1.408475e-02 -3.557111e-02 2.530961e-04 2.214747e+00 1.098479e+01 4.730224e-05 -4.871380e-05 6.650319e-03 3.052669e-04 5.611909e-05
5.918365e-02 1.443088e-02 -3.259884e-02 2.306820e-04 2.110824e+00 1.081022e+01 5.065462e-05 -4.984920e-05 6.420930e-03 3.500787e-04 5.327180e-05
5.984125e-02 1.477809e-02 -2.983967e-02 2.101523e-04 2.008992e+00 1.063351e+01 5.421648e-05 -5.100291e-05 6.176757e-03 3.962814e-04 5.043504e-05
6.049885e-02 1.512613e-02 -2.728224e-02 1.913707e-04 1.909293e+00 1.045461e+01 5.801199e-05 -5.217903e-05 5.921158e-03 4.439041e-04 4.762751e-05
6.115644e-02 1.547474e-02 -2.491531e-02 1.742083e-04 1.811767e+00 1.027349e+01 6.206808e-05 -5.338230e-05 5.657226e-03 4.929773e-04 4.486549e-05
6.181404e-02 1.582368e-02 -2.272785e-02 1.585433e-04 1.716452e+00 1.009008e+01 6.641471e-05 -5.461824e-05 5.387793e-03 5.435328e-04 4.216297e-05
6.247163e-02 1.617267e-02 -2.070904e-02 1.442613e-04 1.623387e+00 9.904317e+00 7.108517e-05 -5.589329e-05 5.115424e-03 5.956040e-04 3.953176e-05
6.312923e-02 1.652143e-02 -1.884835e-02 1.312549e-04 1.532605e+00 9.716144e+00 7.611648e-05 -5.721494e-05 4.842422e-03 6.492266e-04 3.698172e-05
6.378683e-02 1.686967e-02 -1.713560e-02 1.194235e-04 1.444141e+00 9.525484e+00 8.154973e-05 -5.859205e-05 4.570834e-03 7.044394e-04 3.452086e-05
6.444442e-02 1.721709e-02 -1.556092e-02 1.086729e-04 1.358026e+00 9.332253e+00 8.743059e-05 -6.003500e-05 4.302457e-03 7.612849e-04 3.215553e-05
6.510202e-02 1.756340e-02 -1.411487e-02 9.891560e-05 1.274290e+00 9.136362e+00 9.380983e-05 -6.155615e-05 4.038850e-03 8.198107e-04 2.989057e-05
6.575962e-02 1.790825e-02 -1.278838e-02 9.006986e-05 1.192963e+00 8.937709e+00 1.007440e-04 -6.317016e-05 3.781340e-03 8.800708e-04 2.772949e-05
6.641721e-02 1.825134e-02 -1.157281e-02 8.205994e-05 1.114071e+00 8.736179e+00 1.082960e-04 -6.489459e-05 3.531037e-03 9.421279e-04 2.567457e-05
6.707481e-02 1.859230e-02 -1.045994e-02 7.481561e-05 1.037641e+00 8.531646e+00 1.165364e-04 -6.675057e-05 3.288845e-03 1.006056e-03 2.372706e-05
6.773240e-02 1.893079e-02 -9.441976e-03 6.827190e-05 9.636950e-01 8.323968e+00 1.255441e-04 -6.876366e-05 3.055477e-03 1.071943e-03 2.188731e-05
6.839000e-02 1.926643e-02 -8.511561e-03 6.236881e-05 8.922571e-01 8.112982e+00 1.354084e-04 -7.096504e-05 2.831463e-03 1.139896e-03 2.015487e-05
6.904760e-02 1.959883e-02 -7.661766e-03 5.705105e-05 8.233482e-01 7.898508e+00 1.462302e-04 -7.339294e-05 2.617168e-03 1.210048e-03 1.852869e-05
6.970519e-02 1.992758e-02 -6.886085e-03 5.226775e-05 7.569881e-01 7.680336e+00 1.581248e-04 -7.609474e-05 2.412803e-03 1.282561e-03 1.700716e-05
7.036279e-02 2.025227e-02 -6.178432e-03 4.797216e-05 6.931957e-01 7.458231e+00 1.712251e-04 -7.912954e-05 2.218440e-03 1.357641e-03 1.558831e-05
7.102038e-02 2.057244e-02 -5.533133e-03 4.412142e-05 6.319884e-01 7.231919e+00 1.856856e-04 -8.257194e-05 2.034019e-03 1.435547e-03 1.426985e-05
7.167798e-02 2.088762e-02 -4.944914e-03 4.067626e-05 5.733830e-01 7.001087e+00 2.016884e-04 -8.651707e-05 1.859366e-03 1.516610e-03 1.304933e-05
7.233558e-02 2.119731e-02 -4.408891e-03 3.760075e-05 5.173954e-01 6.765367e+00 2.194510e-04 -9.108780e-05 1.694200e-03 1.601254e-03 1.192419e-05
7.299317e-02 2.150099e-02 -3.920566e-03 3.486204e-05 4.640409e-01 6.524330e+00 2.392374e-04 -9.644510e-05 1.538142e-03 1.690029e-03 1.089191e-05
7.365077e-02 2.179808e-02 -3.475808e-03 3.243012e-05 4.133347e-01 6.277468e+00 2.613743e-04 -1.028032e-04 1.390724e-03 1.783652e-03 9.950075e-06
7.430836e-02 2.208799e-02 -3.070850e-03 3.027760e-05 3.652923e-01 6.024172e+00 2.862735e-04 -1.104527e-04 1.251389e-03 1.883071e-03 9.096482e-06
7.496596e-02 2.237007e-02 -2.702278e-03 2.837940e-05 3.199297e-01 5.763709e+00 3.144675e-04 -1.197956e-04 1.119489e-03 1.989553e-03 8.329256e-06
7.562356e-02 2.264359e-02 -2.367024e-03 2.671263e-05 2.772643e-01 5.495179e+00 3.466615e-04 -1.314028e-04 9.942734e-04 2.104816e-03 7.646986e-06
7.628115e-02 2.290777e-02 -2.062357e-03 2.525625e-05 2.373160e-01 5.217465e+00 3.838183e-04 -1.461076e-04 8.748508e-04 2.231231e-03 7.048908e-06
7.693875e-02 2.316177e-02 -1.785886e-03 2.399096e-05 2.001080e-01 4.929150e+00 4.272963e-04 -1.651690e-04 7.601210e-04 2.372150e-03 6.535175e-06
7.759635e-02 2.340458e-02 -1.535555e-03 2.289888e-05 1.656692e-01 4.628402e+00 4.790890e-04 -1.905695e-04 6.486296e-04 2.532445e-03 6.107290e-06
7.825394e-02 2.363512e-02 -1.309654e-03 2.196338e-05 1.340359e-01 4.312782e+00 5.422645e-04 -2.255928e-04 5.382659e-04 2.719459e-03 5.768866e-06
7.891154e-02 2.385208e-02 -1.106828e-03 2.116884e-05 1.052565e-01 3.978935e+00 6.218311e-04 -2.760382e-04 4.255971e-04 2.944792e-03 5.527067e-06
7.956913e-02 2.405392e-02 -9.261107e-04 2.050042e-05 7.939722e-02 3.622032e+00 7.266245e-04 -3.530414e-04 3.042670e-04 3.227960e-03 5.395591e-06
8.022673e-02 2.423870e-02 -7.669755e-04 1.994373e-05 5.655225e-02 3.234699e+00 8.740051e-04 -4.805712e-04 1.606280e-04 3.604761e-03 5.401590e-06
8.088433e-02 2.440395e-02 -6.294467e-04 1.948459e-05 3.686323e-02 2.804669e+00 1.104147e-03 -7.195799e-04 -4.065213e-05 4.149840e-03 5.604474e-06
8.154192e-02 2.454615e-02 -5.143357e-04 1.910852e-05 2.055972e-02 2.308640e+00 1.541341e-03 -1.273481e-03 -4.207985e-04 5.055015e-03 6.161535e-06
8.219952e-02 2.465973e-02 -4.238710e-04 1.880004e-05 8.067642e-03 1.690179e+00 1.613640e-03 -1.434015e-02 -9.053747e-03 9.869493e-03 1.011747e-05
8.285711e-02 2.471844e-02 -3.738761e-04 1.853774e-05 1.628291e-03 5.381835e-01 1.973571e-04 8.159441e-03 5.997791e-03 7.469496e-03 7.821430e-06
8.351471e-02 2.473205e-02 -3.551669e-04 1.829803e-05 1.097288e-04 7.372770e-02 -7.256243e-04 4.321455e-03 2.924367e-03 1.168630e-03 2.220718e-06
8.417231e-02 2.473266e-02 -3.453405e-04 1.806771e-05 0.000000e+00 0.000000e+00 0.000000e+00 0.000000e+00 0.000000e+00 0.000000e+00 0.000000e+00
8.483508e-02 2.473266e-02 -3.362215e-04 1.784185e-05 0.000000e+00 0.000000e+00 0.000000e+00 0.000000e+00 0.000000e+00 0.000000e+00 0.000000e+00
8.550838e-02 2.473266e-02 -3.273424e-04 1.761847e-05 0.000000e+00 0.000000e+00 -1.407427e-04 3.568025e-14 2.541675e-06 8.024916e+00 3.872853e-08
8.619244e-02 2.473266e-02 -3.186954e-04 1.739750e-05 0.000000e+00 0.000000e+00 -1.362418e-04 3.308250e-14 2.407541e-06 7.812943e+00 3.734134e-08
8.688754e-02 2.473266e-02 -3.102731e-04 1.717891e-05 0.000000e+00 0.000000e+00 -1.319308e-04 3.094495e-14 2.281380e-06 7.606479e+00 3.601695e-08
8.759395e-02 2.473266e-02 -3.020685e-04 1.696263e-05 0.000000e+00 0.000000e+00 -1.277998e-04 3.039217e-14 2.162653e-06 7.405349e+00 3.475196e-08
8.831193e-02 2.473266e-02 -2.940746e-04 1.674862e-05 0.000000e+00 0.000000e+00 -1.238395e-04 3.003143e-14 2.050865e-06 7.209386e+00 3.354314e-08
