  radius   |   mu   |   psi   |   phi   |   pressure   |   rho   |  indepres |   res1   |   res2   |   res3   |   res4   |  
0.000000e+00 1.443477e-37 0.000000e+00 1.289222e-02 1.119277e+01 1.885080e+01 0.000000e+00 0.000000e+00 0.000000e+00 0.000000e+00 0.000000e+00
1.643990e-04 3.511690e-10 -3.544406e-03 1.289193e-02 1.119256e+01 1.885068e+01 inf 2.135984e-06 -3.809638e-04 -1.588070e-02 -9.502785e-08
3.287981e-04 3.511645e-09 -7.088432e-03 1.289106e-02 1.119218e+01 1.885047e+01 -2.610613e-06 2.135729e-06 2.702111e-05 -6.785404e-03 -1.453428e-07
4.931971e-04 1.229054e-08 -1.063188e-02 1.288960e-02 1.119159e+01 1.885013e+01 -2.758789e-06 2.135308e-06 3.005990e-05 -4.413641e-03 -2.175205e-07
6.575962e-04 2.949658e-08 -1.417445e-02 1.288756e-02 1.119077e+01 1.884967e+01 -2.800099e-06 2.134720e-06 3.695184e-05 -3.282770e-03 -2.885282e-07
8.219952e-04 5.793792e-08 -1.771587e-02 1.288494e-02 1.118973e+01 1.884909e+01 -2.817611e-06 2.133965e-06 4.059609e-05 -2.616256e-03 -3.596808e-07
9.863942e-04 1.004220e-07 -2.125585e-02 1.288174e-02 1.118845e+01 1.884837e+01 -2.826583e-06 2.133042e-06 4.268326e-05 -2.175767e-03 -4.309589e-07
1.150793e-03 1.597552e-07 -2.479411e-02 1.287795e-02 1.118696e+01 1.884753e+01 -2.831677e-06 2.131952e-06 4.398906e-05 -1.862677e-03 -5.023237e-07
1.315192e-03 2.387429e-07 -2.833036e-02 1.287359e-02 1.118523e+01 1.884656e+01 -2.834729e-06 2.130695e-06 4.486835e-05 -1.628579e-03 -5.737506e-07
1.479591e-03 3.401891e-07 -3.186431e-02 1.286864e-02 1.118328e+01 1.884547e+01 -2.836587e-06 2.129271e-06 4.549805e-05 -1.446873e-03 -6.452251e-07
1.643990e-03 4.668963e-07 -3.539568e-02 1.286311e-02 1.118109e+01 1.884424e+01 -2.837688e-06 2.127681e-06 4.597359e-05 -1.301718e-03 -7.167386e-07
1.808389e-03 6.216653e-07 -3.892419e-02 1.285700e-02 1.117868e+01 1.884289e+01 -2.838275e-06 2.125923e-06 4.634992e-05 -1.183080e-03 -7.882860e-07
1.972788e-03 8.072949e-07 -4.244954e-02 1.285031e-02 1.117604e+01 1.884140e+01 -2.838494e-06 2.123999e-06 4.666046e-05 -1.084295e-03 -8.598641e-07
2.137187e-03 1.026582e-06 -4.597145e-02 1.284304e-02 1.117318e+01 1.883979e+01 -2.838435e-06 2.121908e-06 4.692643e-05 -1.000759e-03 -9.314715e-07
2.301587e-03 1.282321e-06 -4.948964e-02 1.283520e-02 1.117008e+01 1.883805e+01 -2.838158e-06 2.119652e-06 4.716180e-05 -9.291941e-04 -1.003107e-06
2.465986e-03 1.577305e-06 -5.300382e-02 1.282677e-02 1.116676e+01 1.883618e+01 -2.837702e-06 2.117229e-06 4.737612e-05 -8.671966e-04 -1.074771e-06
2.630385e-03 1.914322e-06 -5.651369e-02 1.281777e-02 1.116321e+01 1.883419e+01 -2.837096e-06 2.114641e-06 4.757603e-05 -8.129679e-04 -1.146463e-06
2.794784e-03 2.296159e-06 -6.001898e-02 1.280819e-02 1.115943e+01 1.883206e+01 -2.836358e-06 2.111887e-06 4.776630e-05 -7.651335e-04 -1.218185e-06
2.959183e-03 2.725601e-06 -6.351940e-02 1.279804e-02 1.115542e+01 1.882981e+01 -2.835504e-06 2.108969e-06 4.795041e-05 -7.226253e-04 -1.289936e-06
3.123582e-03 3.205427e-06 -6.701465e-02 1.278731e-02 1.115119e+01 1.882742e+01 -2.834543e-06 2.105885e-06 4.813095e-05 -6.846006e-04 -1.361718e-06
3.287981e-03 3.738414e-06 -7.050446e-02 1.277600e-02 1.114672e+01 1.882491e+01 -2.833484e-06 2.102637e-06 4.830987e-05 -6.503857e-04 -1.433532e-06
3.452380e-03 4.327336e-06 -7.398854e-02 1.276413e-02 1.114204e+01 1.882227e+01 -2.832333e-06 2.099225e-06 4.848866e-05 -6.194354e-04 -1.505378e-06
3.616779e-03 4.974964e-06 -7.746660e-02 1.275168e-02 1.113712e+01 1.881950e+01 -2.831094e-06 2.095649e-06 4.866847e-05 -5.913039e-04 -1.577259e-06
3.781178e-03 5.684061e-06 -8.093834e-02 1.273865e-02 1.113198e+01 1.881661e+01 -2.829772e-06 2.091910e-06 4.885020e-05 -5.656230e-04 -1.649176e-06
3.945577e-03 6.457391e-06 -8.440349e-02 1.272506e-02 1.112661e+01 1.881358e+01 -2.828368e-06 2.088008e-06 4.903457e-05 -5.420861e-04 -1.721129e-06
4.109976e-03 7.297711e-06 -8.786175e-02 1.271090e-02 1.112102e+01 1.881043e+01 -2.826886e-06 2.083943e-06 4.922212e-05 -5.204355e-04 -1.793121e-06
4.274375e-03 8.207773e-06 -9.131285e-02 1.269618e-02 1.111519e+01 1.880715e+01 -2.825327e-06 2.079716e-06 4.941331e-05 -5.004533e-04 -1.865153e-06
4.438774e-03 9.190326e-06 -9.475648e-02 1.268088e-02 1.110915e+01 1.880374e+01 -2.823692e-06 2.075327e-06 4.960848e-05 -4.819541e-04 -1.937225e-06
4.603173e-03 1.024811e-05 -9.819236e-02 1.266502e-02 1.110288e+01 1.880020e+01 -2.821983e-06 2.070778e-06 4.980792e-05 -4.647787e-04 -2.009341e-06
4.767572e-03 1.138387e-05 -1.016202e-01 1.264860e-02 1.109638e+01 1.879653e+01 -2.820200e-06 2.066067e-06 5.001184e-05 -4.487902e-04 -2.081500e-06
4.931971e-03 1.260034e-05 -1.050397e-01 1.263161e-02 1.108966e+01 1.879273e+01 -2.818345e-06 2.061196e-06 5.022040e-05 -4.338696e-04 -2.153706e-06
5.096370e-03 1.390024e-05 -1.084506e-01 1.261406e-02 1.108271e+01 1.878881e+01 -2.816418e-06 2.056165e-06 5.043375e-05 -4.199137e-04 -2.225958e-06
5.260769e-03 1.528629e-05 -1.118526e-01 1.259595e-02 1.107554e+01 1.878476e+01 -2.814418e-06 2.050975e-06 5.065198e-05 -4.068319e-04 -2.298260e-06
5.425168e-03 1.676121e-05 -1.152454e-01 1.257728e-02 1.106815e+01 1.878058e+01 -2.812348e-06 2.045626e-06 5.087514e-05 -3.945447e-04 -2.370611e-06
5.589567e-03 1.832772e-05 -1.186288e-01 1.255806e-02 1.106053e+01 1.877627e+01 -2.810206e-06 2.040119e-06 5.110328e-05 -3.829819e-04 -2.443015e-06
5.753966e-03 1.998851e-05 -1.220023e-01 1.253828e-02 1.105269e+01 1.877183e+01 -2.807994e-06 2.034455e-06 5.133642e-05 -3.720814e-04 -2.515472e-06
5.918365e-03 2.174629e-05 -1.253658e-01 1.251795e-02 1.104463e+01 1.876726e+01 -2.805711e-06 2.028634e-06 5.157455e-05 -3.617881e-04 -2.587984e-06
6.082764e-03 2.360374e-05 -1.287189e-01 1.249706e-02 1.103635e+01 1.876257e+01 -2.803357e-06 2.022656e-06 5.181766e-05 -3.520525e-04 -2.660553e-06
6.247163e-03 2.556356e-05 -1.320614e-01 1.247562e-02 1.102784e+01 1.875775e+01 -2.800932e-06 2.016522e-06 5.206569e-05 -3.428307e-04 -2.733180e-06
6.411562e-03 2.762841e-05 -1.353930e-01 1.245364e-02 1.101911e+01 1.875280e+01 -2.798437e-06 2.010234e-06 5.231860e-05 -3.340832e-04 -2.805866e-06
6.575962e-03 2.980097e-05 -1.387133e-01 1.243111e-02 1.101016e+01 1.874772e+01 -2.795871e-06 2.003791e-06 5.257632e-05 -3.257743e-04 -2.878614e-06
6.740361e-03 3.208391e-05 -1.420222e-01 1.240803e-02 1.100099e+01 1.874251e+01 -2.793235e-06 1.997194e-06 5.283876e-05 -3.178720e-04 -2.951424e-06
6.904760e-03 3.447988e-05 -1.453192e-01 1.238441e-02 1.099160e+01 1.873718e+01 -2.790527e-06 1.990444e-06 5.310582e-05 -3.103471e-04 -3.024299e-06
7.069159e-03 3.699152e-05 -1.486041e-01 1.236025e-02 1.098199e+01 1.873172e+01 -2.787749e-06 1.983542e-06 5.337739e-05 -3.031734e-04 -3.097240e-06
7.233558e-03 3.962148e-05 -1.518766e-01 1.233555e-02 1.097216e+01 1.872612e+01 -2.784899e-06 1.976488e-06 5.365334e-05 -2.963269e-04 -3.170248e-06
7.397957e-03 4.237240e-05 -1.551365e-01 1.231032e-02 1.096211e+01 1.872041e+01 -2.781978e-06 1.969283e-06 5.393354e-05 -2.897857e-04 -3.243325e-06
7.562356e-03 4.524690e-05 -1.583834e-01 1.228455e-02 1.095184e+01 1.871456e+01 -2.778986e-06 1.961928e-06 5.421782e-05 -2.835300e-04 -3.316472e-06
7.726755e-03 4.824759e-05 -1.616170e-01 1.225824e-02 1.094136e+01 1.870859e+01 -2.775922e-06 1.954424e-06 5.450602e-05 -2.775416e-04 -3.389690e-06
7.891154e-03 5.137709e-05 -1.648371e-01 1.223141e-02 1.093066e+01 1.870248e+01 -2.772786e-06 1.946771e-06 5.479796e-05 -2.718036e-04 -3.462982e-06
8.055553e-03 5.463799e-05 -1.680433e-01 1.220404e-02 1.091974e+01 1.869625e+01 -2.769578e-06 1.938970e-06 5.509343e-05 -2.663009e-04 -3.536348e-06
8.219952e-03 5.803289e-05 -1.712353e-01 1.217616e-02 1.090860e+01 1.868990e+01 -2.766298e-06 1.931022e-06 5.539222e-05 -2.610192e-04 -3.609791e-06
8.384351e-03 6.156436e-05 -1.744129e-01 1.214774e-02 1.089725e+01 1.868341e+01 -2.762946e-06 1.922928e-06 5.569410e-05 -2.559455e-04 -3.683310e-06
8.548750e-03 6.523499e-05 -1.775758e-01 1.211881e-02 1.088568e+01 1.867680e+01 -2.759521e-06 1.914689e-06 5.599882e-05 -2.510679e-04 -3.756907e-06
8.713149e-03 6.904734e-05 -1.807237e-01 1.208936e-02 1.087390e+01 1.867006e+01 -2.756022e-06 1.906305e-06 5.630612e-05 -2.463752e-04 -3.830585e-06
8.877548e-03 7.300395e-05 -1.838562e-01 1.205939e-02 1.086190e+01 1.866319e+01 -2.752451e-06 1.897777e-06 5.661572e-05 -2.418572e-04 -3.904342e-06
9.041947e-03 7.710738e-05 -1.869731e-01 1.202891e-02 1.084969e+01 1.865619e+01 -2.748806e-06 1.889107e-06 5.692732e-05 -2.375043e-04 -3.978182e-06
9.206346e-03 8.136016e-05 -1.900741e-01 1.199792e-02 1.083727e+01 1.864907e+01 -2.745088e-06 1.880294e-06 5.724059e-05 -2.333077e-04 -4.052105e-06
9.370745e-03 8.576482e-05 -1.931589e-01 1.196641e-02 1.082463e+01 1.864182e+01 -2.741295e-06 1.871341e-06 5.755521e-05 -2.292592e-04 -4.126111e-06
9.535144e-03 9.032388e-05 -1.962272e-01 1.193441e-02 1.081178e+01 1.863444e+01 -2.737428e-06 1.862248e-06 5.787081e-05 -2.253510e-04 -4.200202e-06
9.699543e-03 9.503983e-05 -1.992787e-01 1.190190e-02 1.079872e+01 1.862693e+01 -2.733487e-06 1.853015e-06 5.818700e-05 -2.215762e-04 -4.274379e-06
9.863942e-03 9.991517e-05 -2.023131e-01 1.186889e-02 1.078545e+01 1.861930e+01 -2.729471e-06 1.843644e-06 5.850340e-05 -2.179279e-04 -4.348642e-06
1.002834e-02 1.049524e-04 -2.053301e-01 1.183538e-02 1.077197e+01 1.861153e+01 -2.725379e-06 1.834137e-06 5.881956e-05 -2.143999e-04 -4.422992e-06
1.019274e-02 1.101540e-04 -2.083294e-01 1.180137e-02 1.075828e+01 1.860365e+01 -2.721213e-06 1.824492e-06 5.913504e-05 -2.109865e-04 -4.497430e-06
1.035714e-02 1.155224e-04 -2.113107e-01 1.176688e-02 1.074437e+01 1.859563e+01 -2.716970e-06 1.814713e-06 5.944937e-05 -2.076821e-04 -4.571955e-06
1.052154e-02 1.210600e-04 -2.142738e-01 1.173190e-02 1.073027e+01 1.858749e+01 -2.712652e-06 1.804799e-06 5.976203e-05 -2.044818e-04 -4.646569e-06
1.068594e-02 1.267694e-04 -2.172182e-01 1.169643e-02 1.071595e+01 1.857922e+01 -2.708257e-06 1.794752e-06 6.007250e-05 -2.013805e-04 -4.721272e-06
1.085034e-02 1.326529e-04 -2.201438e-01 1.166048e-02 1.070143e+01 1.857082e+01 -2.703786e-06 1.784573e-06 6.038022e-05 -1.983739e-04 -4.796062e-06
1.101474e-02 1.387129e-04 -2.230501e-01 1.162405e-02 1.068670e+01 1.856230e+01 -2.699238e-06 1.774263e-06 6.068461e-05 -1.954577e-04 -4.870942e-06
1.117913e-02 1.449520e-04 -2.259370e-01 1.158714e-02 1.067176e+01 1.855364e+01 -2.694612e-06 1.763822e-06 6.098504e-05 -1.926279e-04 -4.945910e-06
1.134353e-02 1.513723e-04 -2.288041e-01 1.154976e-02 1.065662e+01 1.854487e+01 -2.689909e-06 1.753253e-06 6.128086e-05 -1.898808e-04 -5.020965e-06
1.150793e-02 1.579765e-04 -2.316512e-01 1.151191e-02 1.064127e+01 1.853596e+01 -2.685129e-06 1.742555e-06 6.157139e-05 -1.872127e-04 -5.096108e-06
1.167233e-02 1.647667e-04 -2.344778e-01 1.147360e-02 1.062573e+01 1.852693e+01 -2.680270e-06 1.731730e-06 6.185591e-05 -1.846204e-04 -5.171338e-06
1.183673e-02 1.717454e-04 -2.372838e-01 1.143482e-02 1.060997e+01 1.851777e+01 -2.675333e-06 1.720780e-06 6.213367e-05 -1.821007e-04 -5.246654e-06
1.200113e-02 1.789149e-04 -2.400687e-01 1.139558e-02 1.059402e+01 1.850848e+01 -2.670317e-06 1.709704e-06 6.240387e-05 -1.796506e-04 -5.322054e-06
1.216553e-02 1.862776e-04 -2.428324e-01 1.135589e-02 1.057787e+01 1.849907e+01 -2.665222e-06 1.698506e-06 6.266569e-05 -1.772672e-04 -5.397538e-06
1.232993e-02 1.938357e-04 -2.455745e-01 1.131574e-02 1.056151e+01 1.848953e+01 -2.660047e-06 1.687184e-06 6.291825e-05 -1.749479e-04 -5.473104e-06
1.249433e-02 2.015916e-04 -2.482947e-01 1.127514e-02 1.054495e+01 1.847986e+01 -2.654793e-06 1.675741e-06 6.316065e-05 -1.726902e-04 -5.548750e-06
1.265873e-02 2.095476e-04 -2.509927e-01 1.123410e-02 1.052820e+01 1.847007e+01 -2.649459e-06 1.664178e-06 6.339193e-05 -1.704916e-04 -5.624474e-06
1.282312e-02 2.177060e-04 -2.536682e-01 1.119262e-02 1.051124e+01 1.846015e+01 -2.644045e-06 1.652496e-06 6.361109e-05 -1.683499e-04 -5.700274e-06
1.298752e-02 2.260689e-04 -2.563209e-01 1.115070e-02 1.049409e+01 1.845010e+01 -2.638550e-06 1.640696e-06 6.381709e-05 -1.662628e-04 -5.776148e-06
1.315192e-02 2.346388e-04 -2.589505e-01 1.110834e-02 1.047674e+01 1.843993e+01 -2.632974e-06 1.628779e-06 6.400885e-05 -1.642284e-04 -5.852091e-06
1.331632e-02 2.434178e-04 -2.615567e-01 1.106556e-02 1.045920e+01 1.842963e+01 -2.627318e-06 1.616746e-06 6.418522e-05 -1.622446e-04 -5.928103e-06
1.348072e-02 2.524081e-04 -2.641392e-01 1.102235e-02 1.044146e+01 1.841921e+01 -2.621579e-06 1.604599e-06 6.434501e-05 -1.603097e-04 -6.004178e-06
1.364512e-02 2.616120e-04 -2.666976e-01 1.097871e-02 1.042352e+01 1.840865e+01 -2.615759e-06 1.592339e-06 6.448699e-05 -1.584217e-04 -6.080313e-06
1.380952e-02 2.710317e-04 -2.692318e-01 1.093466e-02 1.040540e+01 1.839798e+01 -2.609857e-06 1.579967e-06 6.460986e-05 -1.565791e-04 -6.156504e-06
1.397392e-02 2.806694e-04 -2.717413e-01 1.089019e-02 1.038707e+01 1.838717e+01 -2.603872e-06 1.567484e-06 6.471228e-05 -1.547802e-04 -6.232746e-06
1.413832e-02 2.905271e-04 -2.742259e-01 1.084531e-02 1.036856e+01 1.837624e+01 -2.597805e-06 1.554891e-06 6.479284e-05 -1.530234e-04 -6.309035e-06
1.430272e-02 3.006072e-04 -2.766852e-01 1.080003e-02 1.034986e+01 1.836518e+01 -2.591655e-06 1.542190e-06 6.485009e-05 -1.513074e-04 -6.385365e-06
1.446712e-02 3.109117e-04 -2.791190e-01 1.075434e-02 1.033096e+01 1.835400e+01 -2.585422e-06 1.529382e-06 6.488250e-05 -1.496306e-04 -6.461729e-06
1.463151e-02 3.214428e-04 -2.815270e-01 1.070826e-02 1.031188e+01 1.834269e+01 -2.579105e-06 1.516469e-06 6.488850e-05 -1.479918e-04 -6.538123e-06
1.479591e-02 3.322025e-04 -2.839088e-01 1.066178e-02 1.029260e+01 1.833126e+01 -2.572704e-06 1.503450e-06 6.486644e-05 -1.463896e-04 -6.614539e-06
1.496031e-02 3.431931e-04 -2.862641e-01 1.061491e-02 1.027314e+01 1.831970e+01 -2.566219e-06 1.490329e-06 6.481463e-05 -1.448229e-04 -6.690971e-06
1.512471e-02 3.544165e-04 -2.885927e-01 1.056766e-02 1.025349e+01 1.830801e+01 -2.559650e-06 1.477105e-06 6.473128e-05 -1.432904e-04 -6.767409e-06
1.528911e-02 3.658748e-04 -2.908942e-01 1.052002e-02 1.023366e+01 1.829620e+01 -2.552996e-06 1.463780e-06 6.461458e-05 -1.417911e-04 -6.843847e-06
1.545351e-02 3.775702e-04 -2.931683e-01 1.047201e-02 1.021364e+01 1.828426e+01 -2.546257e-06 1.450356e-06 6.446262e-05 -1.403238e-04 -6.920274e-06
1.561791e-02 3.895046e-04 -2.954148e-01 1.042363e-02 1.019343e+01 1.827219e+01 -2.539434e-06 1.436834e-06 6.427342e-05 -1.388874e-04 -6.996683e-06
1.578231e-02 4.016800e-04 -2.976333e-01 1.037488e-02 1.017305e+01 1.826000e+01 -2.532524e-06 1.423215e-06 6.404496e-05 -1.374811e-04 -7.073062e-06
1.594671e-02 4.140985e-04 -2.998234e-01 1.032577e-02 1.015248e+01 1.824769e+01 -2.525530e-06 1.409500e-06 6.377511e-05 -1.361038e-04 -7.149401e-06
1.611111e-02 4.267621e-04 -3.019850e-01 1.027631e-02 1.013172e+01 1.823525e+01 -2.518449e-06 1.395690e-06 6.346172e-05 -1.347547e-04 -7.225689e-06
1.627550e-02 4.396728e-04 -3.041177e-01 1.022648e-02 1.011079e+01 1.822268e+01 -2.511282e-06 1.381788e-06 6.310251e-05 -1.334327e-04 -7.301914e-06
1.643990e-02 4.528324e-04 -3.062212e-01 1.017631e-02 1.008968e+01 1.820999e+01 -2.504029e-06 1.367794e-06 6.269517e-05 -1.321372e-04 -7.378063e-06
1.660430e-02 4.662430e-04 -3.082951e-01 1.012580e-02 1.006839e+01 1.819717e+01 -2.496689e-06 1.353709e-06 6.223730e-05 -1.308672e-04 -7.454122e-06
1.676870e-02 4.799065e-04 -3.103393e-01 1.007495e-02 1.004692e+01 1.818423e+01 -2.489262e-06 1.339536e-06 6.172643e-05 -1.296220e-04 -7.530078e-06
1.693310e-02 4.938248e-04 -3.123533e-01 1.002376e-02 1.002527e+01 1.817116e+01 -2.481749e-06 1.325274e-06 6.116002e-05 -1.284007e-04 -7.605914e-06
1.709750e-02 5.079998e-04 -3.143369e-01 9.972251e-03 1.000345e+01 1.815796e+01 -2.474148e-06 1.310926e-06 6.053543e-05 -1.272028e-04 -7.681616e-06
1.726190e-02 5.224334e-04 -3.162898e-01 9.920414e-03 9.981455e+00 1.814465e+01 -2.466459e-06 1.296493e-06 5.984999e-05 -1.260274e-04 -7.757167e-06
1.742630e-02 5.371275e-04 -3.182116e-01 9.868258e-03 9.959284e+00 1.813120e+01 -2.458683e-06 1.281976e-06 5.910092e-05 -1.248738e-04 -7.832549e-06
1.759070e-02 5.520838e-04 -3.201021e-01 9.815789e-03 9.936940e+00 1.811763e+01 -2.450819e-06 1.267376e-06 5.828538e-05 -1.237415e-04 -7.907743e-06
1.775510e-02 5.673043e-04 -3.219610e-01 9.763012e-03 9.914424e+00 1.810394e+01 -2.442867e-06 1.252696e-06 5.740046e-05 -1.226297e-04 -7.982731e-06
1.791950e-02 5.827907e-04 -3.237879e-01 9.709932e-03 9.891736e+00 1.809012e+01 -2.434827e-06 1.237935e-06 5.644317e-05 -1.215379e-04 -8.057491e-06
1.808389e-02 5.985449e-04 -3.255827e-01 9.656554e-03 9.868879e+00 1.807617e+01 -2.426698e-06 1.223096e-06 5.541046e-05 -1.204654e-04 -8.132003e-06
1.824829e-02 6.145686e-04 -3.273449e-01 9.602883e-03 9.845852e+00 1.806210e+01 -2.418481e-06 1.208180e-06 5.429919e-05 -1.194117e-04 -8.206243e-06
1.841269e-02 6.308636e-04 -3.290742e-01 9.548926e-03 9.822658e+00 1.804791e+01 -2.410175e-06 1.193187e-06 5.310618e-05 -1.183762e-04 -8.280189e-06
1.857709e-02 6.474317e-04 -3.307705e-01 9.494687e-03 9.799296e+00 1.803359e+01 -2.401781e-06 1.178120e-06 5.182816e-05 -1.173583e-04 -8.353816e-06
1.874149e-02 6.642745e-04 -3.324333e-01 9.440172e-03 9.775768e+00 1.801914e+01 -2.393297e-06 1.162980e-06 5.046182e-05 -1.163575e-04 -8.427098e-06
1.890589e-02 6.813938e-04 -3.340624e-01 9.385386e-03 9.752075e+00 1.800457e+01 -2.384724e-06 1.147768e-06 4.900376e-05 -1.153733e-04 -8.500009e-06
1.907029e-02 6.987914e-04 -3.356575e-01 9.330336e-03 9.728218e+00 1.798988e+01 -2.376062e-06 1.132486e-06 4.745054e-05 -1.144052e-04 -8.572520e-06
1.923469e-02 7.164688e-04 -3.372184e-01 9.275026e-03 9.704198e+00 1.797506e+01 -2.367311e-06 1.117134e-06 4.579867e-05 -1.134527e-04 -8.644603e-06
1.939909e-02 7.344277e-04 -3.387446e-01 9.219462e-03 9.680015e+00 1.796012e+01 -2.358470e-06 1.101714e-06 4.404460e-05 -1.125153e-04 -8.716226e-06
1.956349e-02 7.526698e-04 -3.402360e-01 9.163650e-03 9.655672e+00 1.794505e+01 -2.349540e-06 1.086227e-06 4.218474e-05 -1.115926e-04 -8.787359e-06
1.972788e-02 7.711967e-04 -3.416923e-01 9.107596e-03 9.631170e+00 1.792986e+01 -2.340520e-06 1.070675e-06 4.021546e-05 -1.106841e-04 -8.857969e-06
1.989228e-02 7.900101e-04 -3.431131e-01 9.051305e-03 9.606508e+00 1.791454e+01 -2.331410e-06 1.055059e-06 3.813307e-05 -1.097894e-04 -8.928021e-06
2.005668e-02 8.091114e-04 -3.444982e-01 8.994784e-03 9.581688e+00 1.789910e+01 -2.322211e-06 1.039381e-06 3.593387e-05 -1.089080e-04 -8.997480e-06
2.022108e-02 8.285023e-04 -3.458473e-01 8.938038e-03 9.556712e+00 1.788353e+01 -2.312922e-06 1.023640e-06 3.361414e-05 -1.080395e-04 -9.066309e-06
2.038548e-02 8.481844e-04 -3.471601e-01 8.881073e-03 9.531580e+00 1.786784e+01 -2.303543e-06 1.007840e-06 3.117013e-05 -1.071835e-04 -9.134470e-06
2.054988e-02 8.681591e-04 -3.484364e-01 8.823895e-03 9.506294e+00 1.785203e+01 -2.294074e-06 9.919805e-07 2.859808e-05 -1.063397e-04 -9.201924e-06
2.071428e-02 8.884280e-04 -3.496759e-01 8.766511e-03 9.480854e+00 1.783609e+01 -2.284515e-06 9.760635e-07 2.589422e-05 -1.055075e-04 -9.268630e-06
2.087868e-02 9.089926e-04 -3.508783e-01 8.708925e-03 9.455262e+00 1.782003e+01 -2.274866e-06 9.600900e-07 2.305480e-05 -1.046867e-04 -9.334544e-06
2.104308e-02 9.298544e-04 -3.520434e-01 8.651146e-03 9.429519e+00 1.780384e+01 -2.265127e-06 9.440615e-07 2.007607e-05 -1.038768e-04 -9.399625e-06
2.120748e-02 9.510148e-04 -3.531709e-01 8.593177e-03 9.403625e+00 1.778753e+01 -2.255298e-06 9.279790e-07 1.695430e-05 -1.030775e-04 -9.463826e-06
2.137187e-02 9.724753e-04 -3.542605e-01 8.535027e-03 9.377582e+00 1.777109e+01 -2.245380e-06 9.118438e-07 1.368579e-05 -1.022884e-04 -9.527101e-06
2.153627e-02 9.942373e-04 -3.553120e-01 8.476700e-03 9.351392e+00 1.775453e+01 -2.235371e-06 8.956573e-07 1.026690e-05 -1.015093e-04 -9.589403e-06
2.170067e-02 1.016302e-03 -3.563252e-01 8.418204e-03 9.325054e+00 1.773785e+01 -2.225273e-06 8.794204e-07 6.694031e-06 -1.007396e-04 -9.650681e-06
2.186507e-02 1.038671e-03 -3.572998e-01 8.359544e-03 9.298571e+00 1.772104e+01 -2.215085e-06 8.631346e-07 2.963637e-06 -9.997907e-05 -9.710886e-06
2.202947e-02 1.061346e-03 -3.582355e-01 8.300728e-03 9.271943e+00 1.770411e+01 -2.204807e-06 8.468009e-07 -9.277348e-07 -9.922742e-05 -9.769964e-06
