  radius   |   mu   |   psi   |   phi   |   pressure   |   rho   |  indepres | 
0.000000e+00 -1.589766e-38 0.000000e+00 3.074891e-03 1.330748e+01 1.997020e+01 0.000000e+00 
8.105469e-05 4.503228e-11 -2.019446e-03 3.074810e-03 1.330742e+01 1.997017e+01 inf 
1.621094e-04 4.503213e-10 -4.038752e-03 3.074564e-03 1.330730e+01 1.997011e+01 -6.790317e-07 
2.431641e-04 1.576117e-09 -6.057798e-03 3.074155e-03 1.330712e+01 1.997002e+01 -7.176035e-07 
3.242188e-04 3.782657e-09 -8.076453e-03 3.073582e-03 1.330686e+01 1.996989e+01 -7.283925e-07 
4.052734e-04 7.430160e-09 -1.009459e-02 3.072846e-03 1.330654e+01 1.996973e+01 -7.330044e-07 
4.863281e-04 1.287882e-08 -1.211207e-02 3.071946e-03 1.330615e+01 1.996954e+01 -7.354077e-07 
5.673828e-04 2.048879e-08 -1.412878e-02 3.070882e-03 1.330568e+01 1.996930e+01 -7.368149e-07 
6.484375e-04 3.062020e-08 -1.614458e-02 3.069655e-03 1.330515e+01 1.996904e+01 -7.377038e-07 
7.294922e-04 4.363313e-08 -1.815934e-02 3.068265e-03 1.330455e+01 1.996873e+01 -7.382948e-07 
8.105469e-04 5.988760e-08 -2.017293e-02 3.066711e-03 1.330387e+01 1.996840e+01 -7.387014e-07 
8.916016e-04 7.974358e-08 -2.218522e-02 3.064995e-03 1.330312e+01 1.996802e+01 -7.389872e-07 
9.726562e-04 1.035610e-07 -2.419608e-02 3.063115e-03 1.330231e+01 1.996761e+01 -7.391899e-07 
1.053711e-03 1.316996e-07 -2.620537e-02 3.061072e-03 1.330142e+01 1.996717e+01 -7.393331e-07 
1.134766e-03 1.645193e-07 -2.821298e-02 3.058867e-03 1.330046e+01 1.996669e+01 -7.394322e-07 
1.215820e-03 2.023797e-07 -3.021876e-02 3.056499e-03 1.329943e+01 1.996617e+01 -7.394977e-07 
1.296875e-03 2.456403e-07 -3.222259e-02 3.053968e-03 1.329833e+01 1.996562e+01 -7.395369e-07 
1.377930e-03 2.946607e-07 -3.422433e-02 3.051275e-03 1.329716e+01 1.996504e+01 -7.395547e-07 
1.458984e-03 3.498003e-07 -3.622385e-02 3.048420e-03 1.329591e+01 1.996441e+01 -7.395551e-07 
1.540039e-03 4.114183e-07 -3.822102e-02 3.045403e-03 1.329460e+01 1.996376e+01 -7.395407e-07 
1.621094e-03 4.798740e-07 -4.021571e-02 3.042224e-03 1.329321e+01 1.996306e+01 -7.395137e-07 
1.702148e-03 5.555263e-07 -4.220778e-02 3.038884e-03 1.329176e+01 1.996234e+01 -7.394758e-07 
1.783203e-03 6.387341e-07 -4.419710e-02 3.035382e-03 1.329023e+01 1.996157e+01 -7.394281e-07 
1.864258e-03 7.298564e-07 -4.618354e-02 3.031719e-03 1.328864e+01 1.996077e+01 -7.393716e-07 
1.945312e-03 8.292517e-07 -4.816695e-02 3.027896e-03 1.328697e+01 1.995994e+01 -7.393071e-07 
2.026367e-03 9.372785e-07 -5.014722e-02 3.023911e-03 1.328523e+01 1.995907e+01 -7.392353e-07 
2.107422e-03 1.054295e-06 -5.212419e-02 3.019766e-03 1.328342e+01 1.995816e+01 -7.391567e-07 
2.188477e-03 1.180660e-06 -5.409775e-02 3.015462e-03 1.328154e+01 1.995722e+01 -7.390716e-07 
2.269531e-03 1.316731e-06 -5.606774e-02 3.010997e-03 1.327959e+01 1.995624e+01 -7.389805e-07 
2.350586e-03 1.462865e-06 -5.803404e-02 3.006373e-03 1.327757e+01 1.995523e+01 -7.388835e-07 
2.431641e-03 1.619422e-06 -5.999650e-02 3.001589e-03 1.327548e+01 1.995418e+01 -7.387810e-07 
2.512695e-03 1.786757e-06 -6.195500e-02 2.996647e-03 1.327331e+01 1.995310e+01 -7.386732e-07 
2.593750e-03 1.965229e-06 -6.390939e-02 2.991546e-03 1.327108e+01 1.995198e+01 -7.385601e-07 
2.674805e-03 2.155195e-06 -6.585953e-02 2.986287e-03 1.326878e+01 1.995082e+01 -7.384420e-07 
2.755859e-03 2.357011e-06 -6.780528e-02 2.980870e-03 1.326640e+01 1.994963e+01 -7.383190e-07 
2.836914e-03 2.571034e-06 -6.974651e-02 2.975295e-03 1.326396e+01 1.994841e+01 -7.381911e-07 
2.917969e-03 2.797620e-06 -7.168308e-02 2.969563e-03 1.326144e+01 1.994715e+01 -7.380586e-07 
2.999023e-03 3.037127e-06 -7.361483e-02 2.963675e-03 1.325885e+01 1.994585e+01 -7.379213e-07 
3.080078e-03 3.289909e-06 -7.554165e-02 2.957630e-03 1.325620e+01 1.994452e+01 -7.377795e-07 
3.161133e-03 3.556323e-06 -7.746337e-02 2.951429e-03 1.325347e+01 1.994315e+01 -7.376331e-07 
3.242188e-03 3.836725e-06 -7.937986e-02 2.945072e-03 1.325067e+01 1.994174e+01 -7.374823e-07 
3.323242e-03 4.131469e-06 -8.129097e-02 2.938561e-03 1.324780e+01 1.994030e+01 -7.373270e-07 
3.404297e-03 4.440911e-06 -8.319656e-02 2.931895e-03 1.324486e+01 1.993883e+01 -7.371674e-07 
3.485352e-03 4.765405e-06 -8.509650e-02 2.925074e-03 1.324185e+01 1.993732e+01 -7.370034e-07 
3.566406e-03 5.105306e-06 -8.699062e-02 2.918100e-03 1.323877e+01 1.993577e+01 -7.368350e-07 
3.647461e-03 5.460969e-06 -8.887878e-02 2.910972e-03 1.323562e+01 1.993419e+01 -7.366624e-07 
3.728516e-03 5.832747e-06 -9.076084e-02 2.903692e-03 1.323240e+01 1.993257e+01 -7.364854e-07 
3.809570e-03 6.220993e-06 -9.263666e-02 2.896259e-03 1.322911e+01 1.993092e+01 -7.363042e-07 
3.890625e-03 6.626063e-06 -9.450607e-02 2.888675e-03 1.322574e+01 1.992923e+01 -7.361188e-07 
3.971680e-03 7.048307e-06 -9.636894e-02 2.880939e-03 1.322231e+01 1.992751e+01 -7.359292e-07 
4.052734e-03 7.488081e-06 -9.822511e-02 2.873053e-03 1.321881e+01 1.992575e+01 -7.357353e-07 
4.133789e-03 7.945735e-06 -1.000744e-01 2.865016e-03 1.321523e+01 1.992395e+01 -7.355372e-07 
4.214844e-03 8.421622e-06 -1.019168e-01 2.856830e-03 1.321159e+01 1.992212e+01 -7.353350e-07 
4.295898e-03 8.916095e-06 -1.037519e-01 2.848495e-03 1.320788e+01 1.992025e+01 -7.351285e-07 
4.376953e-03 9.429504e-06 -1.055798e-01 2.840011e-03 1.320409e+01 1.991835e+01 -7.349179e-07 
4.458008e-03 9.962200e-06 -1.074002e-01 2.831380e-03 1.320024e+01 1.991641e+01 -7.347032e-07 
4.539063e-03 1.051454e-05 -1.092130e-01 2.822601e-03 1.319632e+01 1.991444e+01 -7.344843e-07 
4.620117e-03 1.108686e-05 -1.110180e-01 2.813676e-03 1.319232e+01 1.991243e+01 -7.342612e-07 
4.701172e-03 1.167953e-05 -1.128151e-01 2.804604e-03 1.318826e+01 1.991038e+01 -7.340340e-07 
4.782227e-03 1.229288e-05 -1.146042e-01 2.795388e-03 1.318412e+01 1.990830e+01 -7.338027e-07 
4.863281e-03 1.292727e-05 -1.163850e-01 2.786026e-03 1.317992e+01 1.990619e+01 -7.335672e-07 
4.944336e-03 1.358305e-05 -1.181574e-01 2.776521e-03 1.317564e+01 1.990404e+01 -7.333276e-07 
5.025391e-03 1.426057e-05 -1.199212e-01 2.766872e-03 1.317130e+01 1.990185e+01 -7.330839e-07 
5.106445e-03 1.496017e-05 -1.216763e-01 2.757081e-03 1.316688e+01 1.989962e+01 -7.328360e-07 
5.187500e-03 1.568221e-05 -1.234225e-01 2.747148e-03 1.316240e+01 1.989736e+01 -7.325841e-07 
5.268555e-03 1.642703e-05 -1.251597e-01 2.737073e-03 1.315785e+01 1.989507e+01 -7.323280e-07 
5.349609e-03 1.719497e-05 -1.268877e-01 2.726859e-03 1.315322e+01 1.989274e+01 -7.320678e-07 
5.430664e-03 1.798639e-05 -1.286064e-01 2.716504e-03 1.314853e+01 1.989037e+01 -7.318034e-07 
5.511719e-03 1.880163e-05 -1.303155e-01 2.706011e-03 1.314376e+01 1.988797e+01 -7.315350e-07 
5.592773e-03 1.964104e-05 -1.320149e-01 2.695379e-03 1.313893e+01 1.988553e+01 -7.312624e-07 
5.673828e-03 2.050496e-05 -1.337044e-01 2.684610e-03 1.313403e+01 1.988306e+01 -7.309857e-07 
5.754883e-03 2.139374e-05 -1.353839e-01 2.673705e-03 1.312906e+01 1.988055e+01 -7.307049e-07 
5.835937e-03 2.230772e-05 -1.370532e-01 2.662664e-03 1.312401e+01 1.987800e+01 -7.304200e-07 
5.916992e-03 2.324725e-05 -1.387122e-01 2.651488e-03 1.311890e+01 1.987542e+01 -7.301310e-07 
5.998047e-03 2.421267e-05 -1.403606e-01 2.640177e-03 1.311372e+01 1.987280e+01 -7.298378e-07 
6.079102e-03 2.520432e-05 -1.419983e-01 2.628734e-03 1.310847e+01 1.987015e+01 -7.295406e-07 
6.160156e-03 2.622255e-05 -1.436251e-01 2.617159e-03 1.310315e+01 1.986746e+01 -7.292392e-07 
6.241211e-03 2.726770e-05 -1.452409e-01 2.605452e-03 1.309776e+01 1.986474e+01 -7.289337e-07 
6.322266e-03 2.834011e-05 -1.468454e-01 2.593614e-03 1.309230e+01 1.986198e+01 -7.286241e-07 
6.403320e-03 2.944012e-05 -1.484386e-01 2.581647e-03 1.308677e+01 1.985918e+01 -7.283104e-07 
6.484375e-03 3.056808e-05 -1.500201e-01 2.569551e-03 1.308117e+01 1.985635e+01 -7.279925e-07 
6.565430e-03 3.172433e-05 -1.515900e-01 2.557328e-03 1.307551e+01 1.985348e+01 -7.276705e-07 
6.646484e-03 3.290920e-05 -1.531479e-01 2.544978e-03 1.306977e+01 1.985058e+01 -7.273445e-07 
6.727539e-03 3.412303e-05 -1.546937e-01 2.532502e-03 1.306397e+01 1.984764e+01 -7.270142e-07 
6.808594e-03 3.536617e-05 -1.562273e-01 2.519901e-03 1.305809e+01 1.984466e+01 -7.266799e-07 
6.889648e-03 3.663895e-05 -1.577484e-01 2.507176e-03 1.305215e+01 1.984165e+01 -7.263414e-07 
6.970703e-03 3.794171e-05 -1.592568e-01 2.494329e-03 1.304613e+01 1.983861e+01 -7.259989e-07 
7.051758e-03 3.927479e-05 -1.607525e-01 2.481360e-03 1.304005e+01 1.983552e+01 -7.256522e-07 
7.132813e-03 4.063852e-05 -1.622351e-01 2.468270e-03 1.303390e+01 1.983240e+01 -7.253013e-07 
7.213867e-03 4.203325e-05 -1.637046e-01 2.455061e-03 1.302768e+01 1.982925e+01 -7.249464e-07 
7.294922e-03 4.345930e-05 -1.651608e-01 2.441733e-03 1.302139e+01 1.982606e+01 -7.245873e-07 
7.375977e-03 4.491702e-05 -1.666034e-01 2.428287e-03 1.301504e+01 1.982283e+01 -7.242241e-07 
7.457031e-03 4.640673e-05 -1.680323e-01 2.414725e-03 1.300861e+01 1.981957e+01 -7.238567e-07 
7.538086e-03 4.792878e-05 -1.694474e-01 2.401048e-03 1.300212e+01 1.981627e+01 -7.234853e-07 
7.619141e-03 4.948350e-05 -1.708483e-01 2.387257e-03 1.299555e+01 1.981293e+01 -7.231097e-07 
7.700195e-03 5.107121e-05 -1.722350e-01 2.373352e-03 1.298892e+01 1.980956e+01 -7.227299e-07 
7.781250e-03 5.269226e-05 -1.736072e-01 2.359336e-03 1.298222e+01 1.980616e+01 -7.223461e-07 
7.862305e-03 5.434697e-05 -1.749649e-01 2.345210e-03 1.297545e+01 1.980271e+01 -7.219581e-07 
7.943359e-03 5.603568e-05 -1.763077e-01 2.330973e-03 1.296861e+01 1.979923e+01 -7.215660e-07 
8.024414e-03 5.775872e-05 -1.776355e-01 2.316629e-03 1.296171e+01 1.979572e+01 -7.211698e-07 
8.105469e-03 5.951641e-05 -1.789482e-01 2.302178e-03 1.295473e+01 1.979217e+01 -7.207694e-07 
8.186523e-03 6.130909e-05 -1.802455e-01 2.287621e-03 1.294769e+01 1.978858e+01 -7.203649e-07 
8.267578e-03 6.313709e-05 -1.815272e-01 2.272959e-03 1.294058e+01 1.978496e+01 -7.199563e-07 
8.348633e-03 6.500074e-05 -1.827933e-01 2.258194e-03 1.293340e+01 1.978130e+01 -7.195436e-07 
8.429687e-03 6.690036e-05 -1.840434e-01 2.243327e-03 1.292615e+01 1.977760e+01 -7.191267e-07 
8.510742e-03 6.883628e-05 -1.852775e-01 2.228359e-03 1.291884e+01 1.977387e+01 -7.187057e-07 
8.591797e-03 7.080883e-05 -1.864952e-01 2.213292e-03 1.291146e+01 1.977010e+01 -7.182806e-07 
8.672852e-03 7.281834e-05 -1.876965e-01 2.198127e-03 1.290400e+01 1.976630e+01 -7.178514e-07 
8.753906e-03 7.486512e-05 -1.888812e-01 2.182866e-03 1.289649e+01 1.976246e+01 -7.174181e-07 
8.834961e-03 7.694951e-05 -1.900491e-01 2.167509e-03 1.288890e+01 1.975858e+01 -7.169806e-07 
8.916016e-03 7.907183e-05 -1.911999e-01 2.152058e-03 1.288124e+01 1.975467e+01 -7.165391e-07 
8.997070e-03 8.123241e-05 -1.923336e-01 2.136514e-03 1.287352e+01 1.975072e+01 -7.160934e-07 
9.078125e-03 8.343156e-05 -1.934499e-01 2.120879e-03 1.286573e+01 1.974674e+01 -7.156436e-07 
9.159180e-03 8.566961e-05 -1.945486e-01 2.105155e-03 1.285787e+01 1.974272e+01 -7.151898e-07 
9.240234e-03 8.794688e-05 -1.956296e-01 2.089342e-03 1.284995e+01 1.973866e+01 -7.147318e-07 
9.321289e-03 9.026369e-05 -1.966928e-01 2.073442e-03 1.284195e+01 1.973457e+01 -7.142697e-07 
9.402344e-03 9.262037e-05 -1.977378e-01 2.057457e-03 1.283389e+01 1.973044e+01 -7.138036e-07 
9.483398e-03 9.501723e-05 -1.987646e-01 2.041388e-03 1.282577e+01 1.972627e+01 -7.133333e-07 
9.564453e-03 9.745459e-05 -1.997729e-01 2.025236e-03 1.281757e+01 1.972207e+01 -7.128590e-07 
9.645508e-03 9.993277e-05 -2.007627e-01 2.009003e-03 1.280931e+01 1.971783e+01 -7.123806e-07 
9.726563e-03 1.024521e-04 -2.017337e-01 1.992691e-03 1.280098e+01 1.971355e+01 -7.118981e-07 
9.807617e-03 1.050129e-04 -2.026857e-01 1.976301e-03 1.279258e+01 1.970924e+01 -7.114115e-07 
9.888672e-03 1.076154e-04 -2.036186e-01 1.959835e-03 1.278412e+01 1.970490e+01 -7.109209e-07 
9.969727e-03 1.102600e-04 -2.045322e-01 1.943294e-03 1.277559e+01 1.970051e+01 -7.104262e-07 
1.005078e-02 1.129471e-04 -2.054263e-01 1.926679e-03 1.276699e+01 1.969609e+01 -7.099275e-07 
1.013184e-02 1.156768e-04 -2.063008e-01 1.909993e-03 1.275833e+01 1.969163e+01 -7.094248e-07 
1.021289e-02 1.184496e-04 -2.071556e-01 1.893237e-03 1.274960e+01 1.968714e+01 -7.089180e-07 
1.029395e-02 1.212657e-04 -2.079903e-01 1.876412e-03 1.274080e+01 1.968261e+01 -7.084071e-07 
1.037500e-02 1.241255e-04 -2.088050e-01 1.859520e-03 1.273193e+01 1.967805e+01 -7.078923e-07 
1.045605e-02 1.270293e-04 -2.095994e-01 1.842563e-03 1.272300e+01 1.967344e+01 -7.073734e-07 
1.053711e-02 1.299773e-04 -2.103734e-01 1.825543e-03 1.271401e+01 1.966881e+01 -7.068505e-07 
1.061816e-02 1.329699e-04 -2.111268e-01 1.808461e-03 1.270494e+01 1.966413e+01 -7.063236e-07 
1.069922e-02 1.360074e-04 -2.118595e-01 1.791318e-03 1.269581e+01 1.965942e+01 -7.057928e-07 
1.078027e-02 1.390902e-04 -2.125713e-01 1.774117e-03 1.268662e+01 1.965467e+01 -7.052579e-07 
1.086133e-02 1.422184e-04 -2.132621e-01 1.756859e-03 1.267736e+01 1.964989e+01 -7.047191e-07 
1.094238e-02 1.453925e-04 -2.139317e-01 1.739546e-03 1.266803e+01 1.964507e+01 -7.041763e-07 
1.102344e-02 1.486126e-04 -2.145800e-01 1.722180e-03 1.265863e+01 1.964021e+01 -7.036295e-07 
1.110449e-02 1.518793e-04 -2.152068e-01 1.704762e-03 1.264917e+01 1.963532e+01 -7.030788e-07 
1.118555e-02 1.551926e-04 -2.158121e-01 1.687294e-03 1.263965e+01 1.963039e+01 -7.025241e-07 
1.126660e-02 1.585530e-04 -2.163957e-01 1.669777e-03 1.263006e+01 1.962542e+01 -7.019655e-07 
1.134766e-02 1.619608e-04 -2.169574e-01 1.652215e-03 1.262040e+01 1.962042e+01 -7.014030e-07 
1.142871e-02 1.654162e-04 -2.174972e-01 1.634607e-03 1.261068e+01 1.961538e+01 -7.008365e-07 
1.150977e-02 1.689195e-04 -2.180149e-01 1.616957e-03 1.260089e+01 1.961030e+01 -7.002661e-07 
1.159082e-02 1.724711e-04 -2.185104e-01 1.599266e-03 1.259103e+01 1.960519e+01 -6.996919e-07 
1.167187e-02 1.760713e-04 -2.189836e-01 1.581536e-03 1.258112e+01 1.960004e+01 -6.991137e-07 
1.175293e-02 1.797203e-04 -2.194343e-01 1.563768e-03 1.257113e+01 1.959485e+01 -6.985317e-07 
1.183398e-02 1.834184e-04 -2.198625e-01 1.545964e-03 1.256108e+01 1.958963e+01 -6.979458e-07 
1.191504e-02 1.871660e-04 -2.202681e-01 1.528127e-03 1.255097e+01 1.958437e+01 -6.973560e-07 
1.199609e-02 1.909633e-04 -2.206510e-01 1.510258e-03 1.254079e+01 1.957908e+01 -6.967623e-07 
1.207715e-02 1.948107e-04 -2.210110e-01 1.492358e-03 1.253055e+01 1.957374e+01 -6.961648e-07 
1.215820e-02 1.987085e-04 -2.213481e-01 1.474430e-03 1.252024e+01 1.956837e+01 -6.955635e-07 
1.223926e-02 2.026568e-04 -2.216622e-01 1.456476e-03 1.250987e+01 1.956297e+01 -6.949583e-07 
1.232031e-02 2.066561e-04 -2.219532e-01 1.438498e-03 1.249943e+01 1.955753e+01 -6.943493e-07 
1.240137e-02 2.107066e-04 -2.222210e-01 1.420497e-03 1.248893e+01 1.955205e+01 -6.937364e-07 
1.248242e-02 2.148086e-04 -2.224657e-01 1.402475e-03 1.247836e+01 1.954653e+01 -6.931197e-07 
1.256348e-02 2.189624e-04 -2.226870e-01 1.384434e-03 1.246774e+01 1.954098e+01 -6.924992e-07 
1.264453e-02 2.231683e-04 -2.228850e-01 1.366376e-03 1.245704e+01 1.953539e+01 -6.918749e-07 
1.272559e-02 2.274266e-04 -2.230595e-01 1.348303e-03 1.244628e+01 1.952977e+01 -6.912468e-07 
1.280664e-02 2.317375e-04 -2.232106e-01 1.330217e-03 1.243546e+01 1.952411e+01 -6.906149e-07 
1.288770e-02 2.361015e-04 -2.233382e-01 1.312119e-03 1.242458e+01 1.951841e+01 -6.899791e-07 
1.296875e-02 2.405186e-04 -2.234422e-01 1.294013e-03 1.241363e+01 1.951267e+01 -6.893396e-07 
1.304980e-02 2.449893e-04 -2.235227e-01 1.275898e-03 1.240262e+01 1.950690e+01 -6.886963e-07 
1.313086e-02 2.495138e-04 -2.235795e-01 1.257779e-03 1.239154e+01 1.950110e+01 -6.880491e-07 
1.321191e-02 2.540925e-04 -2.236126e-01 1.239655e-03 1.238041e+01 1.949525e+01 -6.873982e-07 
1.329297e-02 2.587255e-04 -2.236221e-01 1.221530e-03 1.236921e+01 1.948937e+01 -6.867434e-07 
1.337402e-02 2.634131e-04 -2.236080e-01 1.203405e-03 1.235794e+01 1.948345e+01 -6.860849e-07 
1.345508e-02 2.681558e-04 -2.235701e-01 1.185282e-03 1.234662e+01 1.947750e+01 -6.854225e-07 
1.353613e-02 2.729536e-04 -2.235085e-01 1.167163e-03 1.233523e+01 1.947151e+01 -6.847563e-07 
1.361719e-02 2.778070e-04 -2.234233e-01 1.149050e-03 1.232377e+01 1.946548e+01 -6.840863e-07 
1.369824e-02 2.827162e-04 -2.233144e-01 1.130945e-03 1.231226e+01 1.945942e+01 -6.834124e-07 
1.377930e-02 2.876814e-04 -2.231818e-01 1.112850e-03 1.230068e+01 1.945331e+01 -6.827347e-07 
1.386035e-02 2.927030e-04 -2.230256e-01 1.094766e-03 1.228905e+01 1.944718e+01 -6.820532e-07 
1.394141e-02 2.977812e-04 -2.228458e-01 1.076696e-03 1.227735e+01 1.944100e+01 -6.813678e-07 
1.402246e-02 3.029163e-04 -2.226425e-01 1.058641e-03 1.226558e+01 1.943479e+01 -6.806785e-07 
1.410352e-02 3.081086e-04 -2.224155e-01 1.040604e-03 1.225376e+01 1.942855e+01 -6.799853e-07 
1.418457e-02 3.133584e-04 -2.221651e-01 1.022587e-03 1.224187e+01 1.942226e+01 -6.792882e-07 
1.426563e-02 3.186658e-04 -2.218913e-01 1.004590e-03 1.222993e+01 1.941594e+01 -6.785872e-07 
1.434668e-02 3.240313e-04 -2.215941e-01 9.866171e-04 1.221792e+01 1.940959e+01 -6.778823e-07 
1.442773e-02 3.294550e-04 -2.212736e-01 9.686688e-04 1.220585e+01 1.940319e+01 -6.771734e-07 
1.450879e-02 3.349373e-04 -2.209298e-01 9.507475e-04 1.219372e+01 1.939676e+01 -6.764605e-07 
1.458984e-02 3.404784e-04 -2.205629e-01 9.328550e-04 1.218153e+01 1.939030e+01 -6.757436e-07 
1.467090e-02 3.460785e-04 -2.201728e-01 9.149931e-04 1.216928e+01 1.938380e+01 -6.750226e-07 
1.475195e-02 3.517380e-04 -2.197598e-01 8.971638e-04 1.215697e+01 1.937726e+01 -6.742976e-07 
1.483301e-02 3.574571e-04 -2.193239e-01 8.793689e-04 1.214460e+01 1.937068e+01 -6.735686e-07 
1.491406e-02 3.632361e-04 -2.188653e-01 8.616103e-04 1.213216e+01 1.936407e+01 -6.728354e-07 
1.499512e-02 3.690752e-04 -2.183839e-01 8.438897e-04 1.211967e+01 1.935742e+01 -6.720980e-07 
1.507617e-02 3.749747e-04 -2.178799e-01 8.262091e-04 1.210712e+01 1.935074e+01 -6.713565e-07 
1.515723e-02 3.809349e-04 -2.173535e-01 8.085702e-04 1.209451e+01 1.934402e+01 -6.706108e-07 
1.523828e-02 3.869560e-04 -2.168048e-01 7.909750e-04 1.208184e+01 1.933726e+01 -6.698608e-07 
1.531934e-02 3.930383e-04 -2.162339e-01 7.734251e-04 1.206911e+01 1.933046e+01 -6.691065e-07 
1.540039e-02 3.991821e-04 -2.156410e-01 7.559223e-04 1.205632e+01 1.932363e+01 -6.683479e-07 
1.548145e-02 4.053876e-04 -2.150261e-01 7.384685e-04 1.204347e+01 1.931677e+01 -6.675849e-07 
1.556250e-02 4.116550e-04 -2.143895e-01 7.210654e-04 1.203057e+01 1.930986e+01 -6.668176e-07 
1.564355e-02 4.179846e-04 -2.137313e-01 7.037148e-04 1.201760e+01 1.930293e+01 -6.660457e-07 
1.572461e-02 4.243768e-04 -2.130516e-01 6.864185e-04 1.200458e+01 1.929595e+01 -6.652694e-07 
1.580566e-02 4.308316e-04 -2.123507e-01 6.691780e-04 1.199150e+01 1.928894e+01 -6.644885e-07 
1.588672e-02 4.373495e-04 -2.116287e-01 6.519953e-04 1.197836e+01 1.928189e+01 -6.637030e-07 
1.596777e-02 4.439306e-04 -2.108858e-01 6.348719e-04 1.196516e+01 1.927481e+01 -6.629129e-07 
1.604883e-02 4.505752e-04 -2.101221e-01 6.178096e-04 1.195191e+01 1.926769e+01 -6.621181e-07 
1.612988e-02 4.572835e-04 -2.093379e-01 6.008100e-04 1.193859e+01 1.926053e+01 -6.613186e-07 
1.621094e-02 4.640559e-04 -2.085334e-01 5.838747e-04 1.192523e+01 1.925334e+01 -6.605142e-07 
1.629199e-02 4.708925e-04 -2.077087e-01 5.670056e-04 1.191180e+01 1.924611e+01 -6.597050e-07 
1.637305e-02 4.777935e-04 -2.068641e-01 5.502040e-04 1.189832e+01 1.923885e+01 -6.588908e-07 
1.645410e-02 4.847593e-04 -2.059998e-01 5.334717e-04 1.188478e+01 1.923155e+01 -6.580718e-07 
1.653516e-02 4.917901e-04 -2.051159e-01 5.168103e-04 1.187118e+01 1.922421e+01 -6.572476e-07 
1.661621e-02 4.988861e-04 -2.042128e-01 5.002213e-04 1.185753e+01 1.921684e+01 -6.564184e-07 
1.669727e-02 5.060476e-04 -2.032906e-01 4.837063e-04 1.184382e+01 1.920943e+01 -6.555841e-07 
1.677832e-02 5.132749e-04 -2.023496e-01 4.672668e-04 1.183005e+01 1.920198e+01 -6.547445e-07 
1.685937e-02 5.205680e-04 -2.013900e-01 4.509043e-04 1.181623e+01 1.919450e+01 -6.538997e-07 
1.694043e-02 5.279274e-04 -2.004120e-01 4.346203e-04 1.180236e+01 1.918699e+01 -6.530495e-07 
1.702148e-02 5.353532e-04 -1.994159e-01 4.184163e-04 1.178843e+01 1.917944e+01 -6.521939e-07 
1.710254e-02 5.428457e-04 -1.984019e-01 4.022938e-04 1.177444e+01 1.917185e+01 -6.513329e-07 
