  radius   |   mu   |   psi   |   phi   |   pressure   |   rho   |  indepres |   res1   |   res2   |   res3   |   res4   |  
0.000000e+00 7.238195e-37 0.000000e+00 9.058976e-01 6.442377e+02 7.278344e+01 0.000000e+00 0.000000e+00 0.000000e+00 0.000000e+00 0.000000e+00
7.922973e-06 4.985449e-12 -2.375073e-01 9.058966e-01 6.442348e+02 7.278333e+01 inf 6.292201e-07 -5.679318e-02 -9.706757e-02 -1.123112e-06
1.584595e-05 4.985408e-11 -4.750101e-01 9.058938e-01 6.442285e+02 7.278309e+01 -7.690768e-07 6.291631e-07 -2.089020e-02 -4.147249e-02 -2.056510e-06
2.376892e-05 1.744870e-10 -7.125046e-01 9.058891e-01 6.442183e+02 7.278271e+01 -8.127834e-07 6.290684e-07 -2.063089e-02 -2.697409e-02 -3.082517e-06
3.169189e-05 4.187614e-10 -9.499869e-01 9.058825e-01 6.442042e+02 7.278218e+01 -8.250320e-07 6.289360e-07 -2.003574e-02 -2.006049e-02 -4.103397e-06
3.961486e-05 8.225484e-10 -1.187453e+00 9.058740e-01 6.441861e+02 7.278149e+01 -8.302928e-07 6.287658e-07 -1.972969e-02 -1.598522e-02 -5.124657e-06
4.753784e-05 1.425711e-09 -1.424898e+00 9.058637e-01 6.441640e+02 7.278066e+01 -8.330605e-07 6.285578e-07 -1.956395e-02 -1.329151e-02 -6.146157e-06
5.546081e-05 2.268102e-09 -1.662319e+00 9.058515e-01 6.441379e+02 7.277968e+01 -8.347082e-07 6.283122e-07 -1.947024e-02 -1.137650e-02 -7.167676e-06
6.338378e-05 3.389563e-09 -1.899711e+00 9.058374e-01 6.441078e+02 7.277855e+01 -8.357769e-07 6.280288e-07 -1.941732e-02 -9.944325e-03 -8.189046e-06
7.130675e-05 4.829920e-09 -2.137070e+00 9.058214e-01 6.440737e+02 7.277726e+01 -8.365163e-07 6.277077e-07 -1.938963e-02 -8.832397e-03 -9.210150e-06
7.922973e-05 6.628985e-09 -2.374393e+00 9.058035e-01 6.440356e+02 7.277583e+01 -8.370549e-07 6.273489e-07 -1.937875e-02 -7.943876e-03 -1.023090e-05
8.715270e-05 8.826550e-09 -2.611674e+00 9.057837e-01 6.439936e+02 7.277424e+01 -8.374645e-07 6.269526e-07 -1.937985e-02 -7.217440e-03 -1.125121e-05
9.507567e-05 1.146239e-08 -2.848911e+00 9.057621e-01 6.439475e+02 7.277251e+01 -8.377878e-07 6.265186e-07 -1.938998e-02 -6.612349e-03 -1.227100e-05
1.029986e-04 1.457625e-08 -3.086098e+00 9.057386e-01 6.438975e+02 7.277062e+01 -8.380515e-07 6.260472e-07 -1.940727e-02 -6.100475e-03 -1.329022e-05
1.109216e-04 1.820786e-08 -3.323232e+00 9.057132e-01 6.438434e+02 7.276859e+01 -8.382728e-07 6.255382e-07 -1.943049e-02 -5.661767e-03 -1.430880e-05
1.188446e-04 2.239693e-08 -3.560309e+00 9.056859e-01 6.437854e+02 7.276640e+01 -8.384636e-07 6.249918e-07 -1.945878e-02 -5.281541e-03 -1.532670e-05
1.267676e-04 2.718312e-08 -3.797325e+00 9.056568e-01 6.437234e+02 7.276407e+01 -8.386318e-07 6.244080e-07 -1.949156e-02 -4.948803e-03 -1.634383e-05
1.346905e-04 3.260608e-08 -4.034276e+00 9.056258e-01 6.436574e+02 7.276158e+01 -8.387832e-07 6.237869e-07 -1.952839e-02 -4.655149e-03 -1.736015e-05
1.426135e-04 3.870541e-08 -4.271157e+00 9.055929e-01 6.435874e+02 7.275894e+01 -8.389218e-07 6.231286e-07 -1.956897e-02 -4.394053e-03 -1.837561e-05
1.505365e-04 4.552070e-08 -4.507964e+00 9.055581e-01 6.435135e+02 7.275616e+01 -8.390507e-07 6.224330e-07 -1.961306e-02 -4.160361e-03 -1.939016e-05
1.584595e-04 5.309149e-08 -4.744694e+00 9.055214e-01 6.434355e+02 7.275322e+01 -8.391720e-07 6.217004e-07 -1.966048e-02 -3.949958e-03 -2.040373e-05
1.663824e-04 6.145727e-08 -4.981342e+00 9.054829e-01 6.433536e+02 7.275013e+01 -8.392875e-07 6.209306e-07 -1.971109e-02 -3.759510e-03 -2.141628e-05
1.743054e-04 7.065752e-08 -5.217905e+00 9.054425e-01 6.432677e+02 7.274689e+01 -8.393984e-07 6.201240e-07 -1.976478e-02 -3.586293e-03 -2.242776e-05
1.822284e-04 8.073165e-08 -5.454378e+00 9.054002e-01 6.431779e+02 7.274350e+01 -8.395055e-07 6.192804e-07 -1.982145e-02 -3.428056e-03 -2.343812e-05
1.901513e-04 9.171904e-08 -5.690757e+00 9.053561e-01 6.430840e+02 7.273997e+01 -8.396096e-07 6.184000e-07 -1.988104e-02 -3.282925e-03 -2.444729e-05
1.980743e-04 1.036590e-07 -5.927038e+00 9.053100e-01 6.429862e+02 7.273628e+01 -8.397113e-07 6.174830e-07 -1.994348e-02 -3.149324e-03 -2.545522e-05
2.059973e-04 1.165909e-07 -6.163218e+00 9.052621e-01 6.428845e+02 7.273244e+01 -8.398108e-07 6.165293e-07 -2.000872e-02 -3.025923e-03 -2.646189e-05
2.139203e-04 1.305539e-07 -6.399291e+00 9.052124e-01 6.427788e+02 7.272846e+01 -8.399084e-07 6.155390e-07 -2.007672e-02 -2.911588e-03 -2.746722e-05
2.218432e-04 1.455871e-07 -6.635255e+00 9.051607e-01 6.426691e+02 7.272432e+01 -8.400043e-07 6.145124e-07 -2.014745e-02 -2.805345e-03 -2.847116e-05
2.297662e-04 1.617298e-07 -6.871105e+00 9.051072e-01 6.425555e+02 7.272003e+01 -8.400986e-07 6.134495e-07 -2.022086e-02 -2.706358e-03 -2.947368e-05
2.376892e-04 1.790210e-07 -7.106837e+00 9.050519e-01 6.424379e+02 7.271560e+01 -8.401913e-07 6.123503e-07 -2.029693e-02 -2.613901e-03 -3.047471e-05
2.456122e-04 1.974997e-07 -7.342447e+00 9.049946e-01 6.423164e+02 7.271101e+01 -8.402824e-07 6.112150e-07 -2.037562e-02 -2.527341e-03 -3.147420e-05
2.535351e-04 2.172049e-07 -7.577931e+00 9.049355e-01 6.421910e+02 7.270628e+01 -8.403717e-07 6.100438e-07 -2.045693e-02 -2.446125e-03 -3.247212e-05
2.614581e-04 2.381754e-07 -7.813286e+00 9.048745e-01 6.420616e+02 7.270140e+01 -8.404593e-07 6.088367e-07 -2.054082e-02 -2.369768e-03 -3.346840e-05
2.693811e-04 2.604502e-07 -8.048506e+00 9.048117e-01 6.419283e+02 7.269637e+01 -8.405449e-07 6.075938e-07 -2.062727e-02 -2.297840e-03 -3.446301e-05
2.773040e-04 2.840679e-07 -8.283589e+00 9.047470e-01 6.417911e+02 7.269119e+01 -8.406285e-07 6.063154e-07 -2.071626e-02 -2.229962e-03 -3.545588e-05
2.852270e-04 3.090672e-07 -8.518530e+00 9.046804e-01 6.416499e+02 7.268586e+01 -8.407097e-07 6.050014e-07 -2.080777e-02 -2.165796e-03 -3.644696e-05
2.931500e-04 3.354869e-07 -8.753325e+00 9.046120e-01 6.415048e+02 7.268038e+01 -8.407885e-07 6.036521e-07 -2.090178e-02 -2.105041e-03 -3.743623e-05
3.010730e-04 3.633655e-07 -8.987970e+00 9.045417e-01 6.413559e+02 7.267475e+01 -8.408646e-07 6.022676e-07 -2.099828e-02 -2.047429e-03 -3.842361e-05
3.089959e-04 3.927414e-07 -9.222461e+00 9.044696e-01 6.412030e+02 7.266898e+01 -8.409377e-07 6.008480e-07 -2.109725e-02 -1.992717e-03 -3.940907e-05
3.169189e-04 4.236530e-07 -9.456795e+00 9.043956e-01 6.410462e+02 7.266305e+01 -8.410077e-07 5.993935e-07 -2.119867e-02 -1.940688e-03 -4.039256e-05
3.248419e-04 4.561388e-07 -9.690968e+00 9.043198e-01 6.408855e+02 7.265698e+01 -8.410741e-07 5.979042e-07 -2.130252e-02 -1.891145e-03 -4.137402e-05
3.327649e-04 4.902369e-07 -9.924975e+00 9.042420e-01 6.407209e+02 7.265076e+01 -8.411368e-07 5.963802e-07 -2.140878e-02 -1.843912e-03 -4.235342e-05
3.406878e-04 5.259856e-07 -1.015881e+01 9.041625e-01 6.405525e+02 7.264439e+01 -8.411954e-07 5.948217e-07 -2.151745e-02 -1.798826e-03 -4.333069e-05
3.486108e-04 5.634229e-07 -1.039248e+01 9.040811e-01 6.403801e+02 7.263788e+01 -8.412497e-07 5.932290e-07 -2.162849e-02 -1.755743e-03 -4.430581e-05
3.565338e-04 6.025868e-07 -1.062596e+01 9.039978e-01 6.402039e+02 7.263121e+01 -8.412993e-07 5.916020e-07 -2.174190e-02 -1.714528e-03 -4.527871e-05
3.644567e-04 6.435154e-07 -1.085927e+01 9.039127e-01 6.400239e+02 7.262440e+01 -8.413439e-07 5.899410e-07 -2.185766e-02 -1.675060e-03 -4.624935e-05
3.723797e-04 6.862463e-07 -1.109239e+01 9.038257e-01 6.398399e+02 7.261745e+01 -8.413832e-07 5.882463e-07 -2.197575e-02 -1.637227e-03 -4.721769e-05
3.803027e-04 7.308175e-07 -1.132532e+01 9.037369e-01 6.396521e+02 7.261034e+01 -8.414168e-07 5.865178e-07 -2.209615e-02 -1.600928e-03 -4.818368e-05
3.882257e-04 7.772664e-07 -1.155806e+01 9.036463e-01 6.394605e+02 7.260309e+01 -8.414443e-07 5.847558e-07 -2.221886e-02 -1.566068e-03 -4.914728e-05
3.961486e-04 8.256308e-07 -1.179060e+01 9.035538e-01 6.392650e+02 7.259569e+01 -8.414655e-07 5.829605e-07 -2.234384e-02 -1.532561e-03 -5.010842e-05
4.040716e-04 8.759481e-07 -1.202295e+01 9.034594e-01 6.390657e+02 7.258814e+01 -8.414799e-07 5.811321e-07 -2.247108e-02 -1.500329e-03 -5.106708e-05
4.119946e-04 9.282556e-07 -1.225508e+01 9.033633e-01 6.388625e+02 7.258045e+01 -8.414871e-07 5.792707e-07 -2.260057e-02 -1.469297e-03 -5.202321e-05
4.199175e-04 9.825907e-07 -1.248701e+01 9.032652e-01 6.386556e+02 7.257261e+01 -8.414869e-07 5.773765e-07 -2.273229e-02 -1.439397e-03 -5.297676e-05
4.278405e-04 1.038990e-06 -1.271873e+01 9.031654e-01 6.384448e+02 7.256463e+01 -8.414787e-07 5.754497e-07 -2.286621e-02 -1.410568e-03 -5.392768e-05
4.357635e-04 1.097492e-06 -1.295023e+01 9.030637e-01 6.382302e+02 7.255650e+01 -8.414622e-07 5.734906e-07 -2.300233e-02 -1.382750e-03 -5.487594e-05
4.436865e-04 1.158132e-06 -1.318152e+01 9.029602e-01 6.380118e+02 7.254822e+01 -8.414371e-07 5.714992e-07 -2.314062e-02 -1.355889e-03 -5.582148e-05
4.516094e-04 1.220948e-06 -1.341258e+01 9.028548e-01 6.377896e+02 7.253980e+01 -8.414028e-07 5.694759e-07 -2.328107e-02 -1.329937e-03 -5.676427e-05
4.595324e-04 1.285977e-06 -1.364341e+01 9.027477e-01 6.375636e+02 7.253123e+01 -8.413591e-07 5.674207e-07 -2.342365e-02 -1.304845e-03 -5.770426e-05
4.674554e-04 1.353254e-06 -1.387401e+01 9.026386e-01 6.373339e+02 7.252252e+01 -8.413054e-07 5.653339e-07 -2.356835e-02 -1.280569e-03 -5.864140e-05
4.753784e-04 1.422817e-06 -1.410438e+01 9.025278e-01 6.371003e+02 7.251366e+01 -8.412414e-07 5.632158e-07 -2.371514e-02 -1.257071e-03 -5.957566e-05
4.833013e-04 1.494702e-06 -1.433450e+01 9.024151e-01 6.368630e+02 7.250465e+01 -8.411666e-07 5.610664e-07 -2.386402e-02 -1.234310e-03 -6.050699e-05
4.912243e-04 1.568946e-06 -1.456439e+01 9.023007e-01 6.366220e+02 7.249550e+01 -8.410806e-07 5.588861e-07 -2.401496e-02 -1.212252e-03 -6.143535e-05
4.991473e-04 1.645584e-06 -1.479403e+01 9.021844e-01 6.363772e+02 7.248621e+01 -8.409830e-07 5.566750e-07 -2.416794e-02 -1.190864e-03 -6.236069e-05
5.070702e-04 1.724652e-06 -1.502342e+01 9.020662e-01 6.361287e+02 7.247677e+01 -8.408733e-07 5.544333e-07 -2.432293e-02 -1.170114e-03 -6.328298e-05
5.149932e-04 1.806188e-06 -1.525256e+01 9.019463e-01 6.358764e+02 7.246719e+01 -8.407511e-07 5.521614e-07 -2.447993e-02 -1.149972e-03 -6.420217e-05
5.229162e-04 1.890225e-06 -1.548144e+01 9.018245e-01 6.356204e+02 7.245747e+01 -8.406160e-07 5.498593e-07 -2.463891e-02 -1.130412e-03 -6.511821e-05
5.308392e-04 1.976801e-06 -1.571006e+01 9.017010e-01 6.353607e+02 7.244760e+01 -8.404674e-07 5.475274e-07 -2.479985e-02 -1.111408e-03 -6.603109e-05
5.387621e-04 2.065951e-06 -1.593842e+01 9.015756e-01 6.350973e+02 7.243758e+01 -8.403050e-07 5.451658e-07 -2.496273e-02 -1.092934e-03 -6.694073e-05
5.466851e-04 2.157710e-06 -1.616651e+01 9.014484e-01 6.348302e+02 7.242743e+01 -8.401283e-07 5.427748e-07 -2.512753e-02 -1.074969e-03 -6.784712e-05
5.546081e-04 2.252114e-06 -1.639433e+01 9.013194e-01 6.345594e+02 7.241713e+01 -8.399368e-07 5.403547e-07 -2.529423e-02 -1.057491e-03 -6.875021e-05
5.625311e-04 2.349197e-06 -1.662187e+01 9.011886e-01 6.342850e+02 7.240668e+01 -8.397300e-07 5.379055e-07 -2.546280e-02 -1.040478e-03 -6.964996e-05
5.704540e-04 2.448996e-06 -1.684914e+01 9.010560e-01 6.340068e+02 7.239610e+01 -8.395076e-07 5.354277e-07 -2.563323e-02 -1.023913e-03 -7.054632e-05
5.783770e-04 2.551544e-06 -1.707612e+01 9.009217e-01 6.337250e+02 7.238537e+01 -8.392690e-07 5.329214e-07 -2.580550e-02 -1.007776e-03 -7.143927e-05
5.863000e-04 2.656877e-06 -1.730281e+01 9.007855e-01 6.334396e+02 7.237450e+01 -8.390138e-07 5.303869e-07 -2.597957e-02 -9.920501e-04 -7.232876e-05
5.942229e-04 2.765029e-06 -1.752922e+01 9.006475e-01 6.331505e+02 7.236349e+01 -8.387414e-07 5.278244e-07 -2.615544e-02 -9.767198e-04 -7.321475e-05
6.021459e-04 2.876036e-06 -1.775533e+01 9.005077e-01 6.328577e+02 7.235234e+01 -8.384515e-07 5.252341e-07 -2.633308e-02 -9.617691e-04 -7.409721e-05
6.100689e-04 2.989931e-06 -1.798115e+01 9.003661e-01 6.325614e+02 7.234104e+01 -8.381436e-07 5.226164e-07 -2.651246e-02 -9.471834e-04 -7.497609e-05
6.179919e-04 3.106749e-06 -1.820667e+01 9.002228e-01 6.322614e+02 7.232960e+01 -8.378171e-07 5.199714e-07 -2.669357e-02 -9.329490e-04 -7.585138e-05
6.259148e-04 3.226523e-06 -1.843188e+01 9.000776e-01 6.319578e+02 7.231803e+01 -8.374716e-07 5.172995e-07 -2.687638e-02 -9.190525e-04 -7.672301e-05
6.338378e-04 3.349288e-06 -1.865679e+01 8.999307e-01 6.316507e+02 7.230631e+01 -8.371066e-07 5.146008e-07 -2.706087e-02 -9.054814e-04 -7.759096e-05
6.417608e-04 3.475079e-06 -1.888139e+01 8.997820e-01 6.313399e+02 7.229445e+01 -8.367216e-07 5.118757e-07 -2.724701e-02 -8.922239e-04 -7.845518e-05
6.496838e-04 3.603927e-06 -1.910567e+01 8.996315e-01 6.310256e+02 7.228245e+01 -8.363162e-07 5.091244e-07 -2.743479e-02 -8.792686e-04 -7.931566e-05
6.576067e-04 3.735868e-06 -1.932964e+01 8.994792e-01 6.307077e+02 7.227031e+01 -8.358899e-07 5.063472e-07 -2.762418e-02 -8.666048e-04 -8.017235e-05
6.655297e-04 3.870934e-06 -1.955328e+01 8.993252e-01 6.303863e+02 7.225803e+01 -8.354421e-07 5.035442e-07 -2.781516e-02 -8.542221e-04 -8.102520e-05
6.734527e-04 4.009158e-06 -1.977660e+01 8.991694e-01 6.300613e+02 7.224561e+01 -8.349725e-07 5.007159e-07 -2.800770e-02 -8.421109e-04 -8.187419e-05
6.813756e-04 4.150575e-06 -1.999960e+01 8.990118e-01 6.297328e+02 7.223305e+01 -8.344804e-07 4.978624e-07 -2.820178e-02 -8.302617e-04 -8.271930e-05
6.892986e-04 4.295216e-06 -2.022226e+01 8.988525e-01 6.294007e+02 7.222035e+01 -8.339655e-07 4.949841e-07 -2.839737e-02 -8.186657e-04 -8.356048e-05
6.972216e-04 4.443115e-06 -2.044459e+01 8.986914e-01 6.290652e+02 7.220752e+01 -8.334273e-07 4.920811e-07 -2.859446e-02 -8.073145e-04 -8.439768e-05
7.051446e-04 4.594304e-06 -2.066658e+01 8.985285e-01 6.287261e+02 7.219454e+01 -8.328652e-07 4.891539e-07 -2.879302e-02 -7.961998e-04 -8.523089e-05
7.130675e-04 4.748816e-06 -2.088823e+01 8.983639e-01 6.283836e+02 7.218143e+01 -8.322788e-07 4.862026e-07 -2.899302e-02 -7.853140e-04 -8.606008e-05
7.209905e-04 4.906683e-06 -2.110954e+01 8.981975e-01 6.280376e+02 7.216818e+01 -8.316676e-07 4.832275e-07 -2.919445e-02 -7.746497e-04 -8.688521e-05
7.289135e-04 5.067938e-06 -2.133049e+01 8.980294e-01 6.276881e+02 7.215479e+01 -8.310311e-07 4.802290e-07 -2.939727e-02 -7.641997e-04 -8.770624e-05
7.368365e-04 5.232611e-06 -2.155110e+01 8.978595e-01 6.273352e+02 7.214126e+01 -8.303688e-07 4.772072e-07 -2.960146e-02 -7.539574e-04 -8.852315e-05
7.447594e-04 5.400736e-06 -2.177136e+01 8.976879e-01 6.269788e+02 7.212760e+01 -8.296803e-07 4.741626e-07 -2.980700e-02 -7.439162e-04 -8.933590e-05
7.526824e-04 5.572345e-06 -2.199125e+01 8.975146e-01 6.266189e+02 7.211380e+01 -8.289650e-07 4.710953e-07 -3.001386e-02 -7.340699e-04 -9.014445e-05
7.606054e-04 5.747467e-06 -2.221079e+01 8.973394e-01 6.262557e+02 7.209986e+01 -8.282226e-07 4.680056e-07 -3.022202e-02 -7.244126e-04 -9.094879e-05
7.685283e-04 5.926136e-06 -2.242996e+01 8.971626e-01 6.258890e+02 7.208579e+01 -8.274524e-07 4.648939e-07 -3.043145e-02 -7.149385e-04 -9.174889e-05
7.764513e-04 6.108381e-06 -2.264876e+01 8.969840e-01 6.255190e+02 7.207158e+01 -8.266541e-07 4.617604e-07 -3.064213e-02 -7.056422e-04 -9.254471e-05
7.843743e-04 6.294235e-06 -2.286720e+01 8.968037e-01 6.251456e+02 7.205723e+01 -8.258272e-07 4.586054e-07 -3.085404e-02 -6.965185e-04 -9.333622e-05
7.922973e-04 6.483728e-06 -2.308526e+01 8.966217e-01 6.247687e+02 7.204275e+01 -8.249712e-07 4.554292e-07 -3.106714e-02 -6.875623e-04 -9.412339e-05
8.002202e-04 6.676890e-06 -2.330294e+01 8.964379e-01 6.243886e+02 7.202814e+01 -8.240856e-07 4.522322e-07 -3.128142e-02 -6.787688e-04 -9.490619e-05
8.081432e-04 6.873753e-06 -2.352025e+01 8.962524e-01 6.240050e+02 7.201339e+01 -8.231699e-07 4.490145e-07 -3.149684e-02 -6.701333e-04 -9.568460e-05
8.160662e-04 7.074347e-06 -2.373717e+01 8.960652e-01 6.236182e+02 7.199850e+01 -8.222237e-07 4.457765e-07 -3.171339e-02 -6.616514e-04 -9.645860e-05
8.239892e-04 7.278701e-06 -2.395371e+01 8.958763e-01 6.232280e+02 7.198348e+01 -8.212466e-07 4.425185e-07 -3.193103e-02 -6.533187e-04 -9.722815e-05
8.319121e-04 7.486847e-06 -2.416985e+01 8.956856e-01 6.228345e+02 7.196833e+01 -8.202380e-07 4.392408e-07 -3.214975e-02 -6.451312e-04 -9.799321e-05
8.398351e-04 7.698813e-06 -2.438561e+01 8.954933e-01 6.224377e+02 7.195304e+01 -8.191976e-07 4.359437e-07 -3.236951e-02 -6.370848e-04 -9.875377e-05
8.477581e-04 7.914630e-06 -2.460097e+01 8.952992e-01 6.220376e+02 7.193762e+01 -8.181248e-07 4.326274e-07 -3.259030e-02 -6.291758e-04 -9.950980e-05
8.556810e-04 8.134326e-06 -2.481593e+01 8.951035e-01 6.216342e+02 7.192207e+01 -8.170192e-07 4.292924e-07 -3.281208e-02 -6.214005e-04 -1.002613e-04
8.636040e-04 8.357932e-06 -2.503050e+01 8.949060e-01 6.212275e+02 7.190638e+01 -8.158803e-07 4.259388e-07 -3.303482e-02 -6.137553e-04 -1.010082e-04
8.715270e-04 8.585476e-06 -2.524465e+01 8.947068e-01 6.208176e+02 7.189056e+01 -8.147078e-07 4.225670e-07 -3.325852e-02 -6.062368e-04 -1.017505e-04
8.794500e-04 8.816988e-06 -2.545840e+01 8.945060e-01 6.204045e+02 7.187461e+01 -8.135011e-07 4.191774e-07 -3.348313e-02 -5.988416e-04 -1.024882e-04
8.873729e-04 9.052496e-06 -2.567174e+01 8.943034e-01 6.199881e+02 7.185853e+01 -8.122599e-07 4.157701e-07 -3.370863e-02 -5.915667e-04 -1.032212e-04
8.952959e-04 9.292029e-06 -2.588467e+01 8.940992e-01 6.195686e+02 7.184232e+01 -8.109836e-07 4.123455e-07 -3.393500e-02 -5.844091e-04 -1.039495e-04
9.032189e-04 9.535614e-06 -2.609718e+01 8.938933e-01 6.191458e+02 7.182597e+01 -8.096719e-07 4.089040e-07 -3.416221e-02 -5.773656e-04 -1.046732e-04
9.111419e-04 9.783282e-06 -2.630928e+01 8.936857e-01 6.187198e+02 7.180949e+01 -8.083244e-07 4.054458e-07 -3.439024e-02 -5.704335e-04 -1.053921e-04
9.190648e-04 1.003506e-05 -2.652095e+01 8.934764e-01 6.182907e+02 7.179289e+01 -8.069406e-07 4.019712e-07 -3.461905e-02 -5.636100e-04 -1.061062e-04
9.269878e-04 1.029097e-05 -2.673219e+01 8.932654e-01 6.178584e+02 7.177615e+01 -8.055201e-07 3.984805e-07 -3.484863e-02 -5.568925e-04 -1.068156e-04
9.349108e-04 1.055105e-05 -2.694301e+01 8.930528e-01 6.174229e+02 7.175929e+01 -8.040624e-07 3.949741e-07 -3.507894e-02 -5.502784e-04 -1.075203e-04
9.428337e-04 1.081532e-05 -2.715340e+01 8.928385e-01 6.169844e+02 7.174229e+01 -8.025673e-07 3.914523e-07 -3.530997e-02 -5.437652e-04 -1.082201e-04
9.507567e-04 1.108381e-05 -2.736336e+01 8.926225e-01 6.165427e+02 7.172517e+01 -8.010342e-07 3.879153e-07 -3.554168e-02 -5.373505e-04 -1.089150e-04
9.586797e-04 1.135655e-05 -2.757288e+01 8.924049e-01 6.160978e+02 7.170791e+01 -7.994628e-07 3.843635e-07 -3.577406e-02 -5.310321e-04 -1.096052e-04
9.666027e-04 1.163357e-05 -2.778197e+01 8.921856e-01 6.156499e+02 7.169053e+01 -7.978526e-07 3.807972e-07 -3.600706e-02 -5.248076e-04 -1.102904e-04
9.745256e-04 1.191488e-05 -2.799061e+01 8.919646e-01 6.151990e+02 7.167302e+01 -7.962034e-07 3.772167e-07 -3.624068e-02 -5.186749e-04 -1.109708e-04
9.824486e-04 1.220052e-05 -2.819880e+01 8.917420e-01 6.147449e+02 7.165539e+01 -7.945147e-07 3.736223e-07 -3.647488e-02 -5.126319e-04 -1.116462e-04
9.903716e-04 1.249051e-05 -2.840656e+01 8.915178e-01 6.142878e+02 7.163762e+01 -7.927861e-07 3.700144e-07 -3.670963e-02 -5.066766e-04 -1.123168e-04
9.982946e-04 1.278488e-05 -2.861386e+01 8.912919e-01 6.138277e+02 7.161973e+01 -7.910172e-07 3.663932e-07 -3.694491e-02 -5.008069e-04 -1.129823e-04
1.006218e-03 1.308366e-05 -2.882071e+01 8.910644e-01 6.133645e+02 7.160171e+01 -7.892077e-07 3.627590e-07 -3.718070e-02 -4.950211e-04 -1.136429e-04
1.014140e-03 1.338687e-05 -2.902710e+01 8.908352e-01 6.128983e+02 7.158357e+01 -7.873573e-07 3.591122e-07 -3.741697e-02 -4.893173e-04 -1.142986e-04
1.022063e-03 1.369454e-05 -2.923304e+01 8.906044e-01 6.124291e+02 7.156530e+01 -7.854655e-07 3.554531e-07 -3.765369e-02 -4.836936e-04 -1.149492e-04
1.029986e-03 1.400669e-05 -2.943852e+01 8.903720e-01 6.119570e+02 7.154690e+01 -7.835320e-07 3.517820e-07 -3.789084e-02 -4.781484e-04 -1.155948e-04
1.037909e-03 1.432335e-05 -2.964354e+01 8.901380e-01 6.114819e+02 7.152838e+01 -7.815565e-07 3.480992e-07 -3.812839e-02 -4.726799e-04 -1.162354e-04
1.045832e-03 1.464453e-05 -2.984809e+01 8.899023e-01 6.110038e+02 7.150973e+01 -7.795386e-07 3.444051e-07 -3.836631e-02 -4.672866e-04 -1.168709e-04
1.053755e-03 1.497028e-05 -3.005217e+01 8.896650e-01 6.105227e+02 7.149096e+01 -7.774780e-07 3.406998e-07 -3.860459e-02 -4.619668e-04 -1.175014e-04
