  radius   |   mu   |   psi   |   phi   |   pressure   |   rho   |  indepres |   res1   |   res2   |   res3   |   res4   |  
0.000000e+00 -8.819771e-37 0.000000e+00 9.058975e-01 6.442457e+02 7.278374e+01 0.000000e+00 0.000000e+00 0.000000e+00 0.000000e+00 0.000000e+00
1.584595e-05 3.988368e-11 -4.750168e-01 9.058937e-01 6.442342e+02 7.278331e+01 inf 2.516650e-06 -2.271977e-01 -1.941302e-01 -8.984749e-06
3.169189e-05 3.988236e-10 -9.499976e-01 9.058824e-01 6.442090e+02 7.278236e+01 -3.076385e-06 2.515738e-06 -8.362992e-02 -8.293185e-02 -1.645046e-05
4.753784e-05 1.395811e-09 -1.424913e+00 9.058636e-01 6.441683e+02 7.278082e+01 -3.251325e-06 2.514224e-06 -8.267273e-02 -5.392803e-02 -2.465462e-05
6.338378e-05 3.349708e-09 -1.899729e+00 9.058373e-01 6.441117e+02 7.277870e+01 -3.300476e-06 2.512107e-06 -8.040402e-02 -4.009392e-02 -3.281392e-05
7.922973e-05 6.579184e-09 -2.374414e+00 9.058034e-01 6.440393e+02 7.277597e+01 -3.321719e-06 2.509386e-06 -7.932364e-02 -3.193652e-02 -4.097128e-05
9.507567e-05 1.140265e-08 -2.848936e+00 9.057620e-01 6.439509e+02 7.277264e+01 -3.333029e-06 2.506064e-06 -7.883629e-02 -2.654225e-02 -4.912433e-05
1.109216e-04 1.813820e-08 -3.323260e+00 9.057131e-01 6.438467e+02 7.276871e+01 -3.339896e-06 2.502142e-06 -7.866874e-02 -2.270543e-02 -5.727004e-05
1.267676e-04 2.710355e-08 -3.797356e+00 9.056567e-01 6.437264e+02 7.276418e+01 -3.344480e-06 2.497621e-06 -7.869592e-02 -1.983427e-02 -6.540590e-05
1.426135e-04 3.861594e-08 -4.271190e+00 9.055928e-01 6.435903e+02 7.275905e+01 -3.347777e-06 2.492502e-06 -7.885535e-02 -1.760363e-02 -7.352969e-05
1.584595e-04 5.299214e-08 -4.744730e+00 9.055214e-01 6.434383e+02 7.275332e+01 -3.350295e-06 2.486789e-06 -7.911326e-02 -1.581981e-02 -8.163946e-05
1.743054e-04 7.054830e-08 -5.217943e+00 9.054424e-01 6.432703e+02 7.274699e+01 -3.352317e-06 2.480483e-06 -7.945007e-02 -1.436018e-02 -8.973332e-05
1.901513e-04 9.159998e-08 -5.690798e+00 9.053560e-01 6.430865e+02 7.274006e+01 -3.354009e-06 2.473587e-06 -7.985379e-02 -1.314326e-02 -9.780952e-05
2.059973e-04 1.164620e-07 -6.163261e+00 9.052621e-01 6.428869e+02 7.273253e+01 -3.355470e-06 2.466104e-06 -8.031669e-02 -1.211279e-02 -1.058663e-04
2.218432e-04 1.454484e-07 -6.635301e+00 9.051607e-01 6.426714e+02 7.272441e+01 -3.356763e-06 2.458036e-06 -8.083356e-02 -1.122867e-02 -1.139020e-04
2.376892e-04 1.788725e-07 -7.106885e+00 9.050518e-01 6.424402e+02 7.271568e+01 -3.357930e-06 2.449387e-06 -8.140073e-02 -1.046153e-02 -1.219150e-04
2.535351e-04 2.170466e-07 -7.577982e+00 9.049354e-01 6.421931e+02 7.270636e+01 -3.358993e-06 2.440161e-06 -8.201556e-02 -9.789387e-03 -1.299035e-04
2.693811e-04 2.602822e-07 -8.048558e+00 9.048116e-01 6.419304e+02 7.269644e+01 -3.359969e-06 2.430361e-06 -8.267600e-02 -9.195435e-03 -1.378661e-04
2.852270e-04 3.088895e-07 -8.518584e+00 9.046804e-01 6.416519e+02 7.268593e+01 -3.360865e-06 2.419992e-06 -8.338048e-02 -8.666619e-03 -1.458011e-04
3.010730e-04 3.631781e-07 -8.988026e+00 9.045417e-01 6.413578e+02 7.267482e+01 -3.361685e-06 2.409056e-06 -8.412768e-02 -8.192638e-03 -1.537069e-04
3.169189e-04 4.234559e-07 -9.456853e+00 9.043955e-01 6.410480e+02 7.266312e+01 -3.362428e-06 2.397560e-06 -8.491653e-02 -7.765257e-03 -1.615819e-04
3.327649e-04 4.900302e-07 -9.925035e+00 9.042420e-01 6.407227e+02 7.265083e+01 -3.363091e-06 2.385506e-06 -8.574605e-02 -7.377814e-03 -1.694247e-04
3.486108e-04 5.632065e-07 -1.039254e+01 9.040810e-01 6.403819e+02 7.263794e+01 -3.363670e-06 2.372901e-06 -8.661540e-02 -7.024858e-03 -1.772337e-04
3.644567e-04 6.432894e-07 -1.085933e+01 9.039126e-01 6.400255e+02 7.262447e+01 -3.364158e-06 2.359750e-06 -8.752380e-02 -6.701892e-03 -1.850073e-04
3.803027e-04 7.305820e-07 -1.132539e+01 9.037368e-01 6.396537e+02 7.261040e+01 -3.364547e-06 2.346057e-06 -8.847050e-02 -6.405166e-03 -1.927441e-04
3.961486e-04 8.253858e-07 -1.179067e+01 9.035537e-01 6.392665e+02 7.259575e+01 -3.364827e-06 2.331828e-06 -8.945480e-02 -6.131534e-03 -2.004426e-04
4.119946e-04 9.280011e-07 -1.225515e+01 9.033632e-01 6.388640e+02 7.258051e+01 -3.364990e-06 2.317068e-06 -9.047603e-02 -5.878332e-03 -2.081013e-04
4.278405e-04 1.038726e-06 -1.271880e+01 9.031653e-01 6.384462e+02 7.256468e+01 -3.365024e-06 2.301785e-06 -9.153351e-02 -5.643294e-03 -2.157187e-04
4.436865e-04 1.157859e-06 -1.318159e+01 9.029601e-01 6.380132e+02 7.254827e+01 -3.364918e-06 2.285983e-06 -9.262659e-02 -5.424477e-03 -2.232935e-04
4.595324e-04 1.285694e-06 -1.364348e+01 9.027476e-01 6.375650e+02 7.253128e+01 -3.364661e-06 2.269668e-06 -9.375460e-02 -5.220206e-03 -2.308243e-04
4.753784e-04 1.422525e-06 -1.410445e+01 9.025277e-01 6.371016e+02 7.251371e+01 -3.364239e-06 2.252849e-06 -9.491688e-02 -5.029031e-03 -2.383095e-04
4.912243e-04 1.568644e-06 -1.456447e+01 9.023006e-01 6.366233e+02 7.249555e+01 -3.363640e-06 2.235530e-06 -9.611279e-02 -4.849688e-03 -2.457479e-04
5.070702e-04 1.724341e-06 -1.502350e+01 9.020662e-01 6.361299e+02 7.247682e+01 -3.362851e-06 2.217719e-06 -9.734164e-02 -4.681073e-03 -2.531381e-04
5.229162e-04 1.889905e-06 -1.548152e+01 9.018245e-01 6.356216e+02 7.245751e+01 -3.361859e-06 2.199423e-06 -9.860278e-02 -4.522213e-03 -2.604788e-04
5.387621e-04 2.065622e-06 -1.593850e+01 9.015755e-01 6.350984e+02 7.243763e+01 -3.360648e-06 2.180650e-06 -9.989552e-02 -4.372254e-03 -2.677685e-04
5.546081e-04 2.251775e-06 -1.639441e+01 9.013194e-01 6.345605e+02 7.241717e+01 -3.359206e-06 2.161405e-06 -1.012192e-01 -4.230436e-03 -2.750062e-04
5.704540e-04 2.448648e-06 -1.684922e+01 9.010560e-01 6.340079e+02 7.239614e+01 -3.357517e-06 2.141697e-06 -1.025730e-01 -4.096086e-03 -2.821903e-04
5.863000e-04 2.656520e-06 -1.730290e+01 9.007854e-01 6.334406e+02 7.237454e+01 -3.355568e-06 2.121534e-06 -1.039564e-01 -3.968602e-03 -2.893198e-04
6.021459e-04 2.875670e-06 -1.775542e+01 9.005076e-01 6.328587e+02 7.235237e+01 -3.353343e-06 2.100923e-06 -1.053686e-01 -3.847448e-03 -2.963934e-04
6.179919e-04 3.106373e-06 -1.820676e+01 9.002227e-01 6.322624e+02 7.232964e+01 -3.350827e-06 2.079873e-06 -1.068089e-01 -3.732140e-03 -3.034098e-04
6.338378e-04 3.348904e-06 -1.865688e+01 8.999306e-01 6.316516e+02 7.230634e+01 -3.348006e-06 2.058391e-06 -1.082765e-01 -3.622245e-03 -3.103679e-04
6.496838e-04 3.603534e-06 -1.910576e+01 8.996314e-01 6.310265e+02 7.228248e+01 -3.344863e-06 2.036485e-06 -1.097708e-01 -3.517372e-03 -3.172665e-04
6.655297e-04 3.870531e-06 -1.955337e+01 8.993251e-01 6.303871e+02 7.225806e+01 -3.341385e-06 2.014165e-06 -1.112909e-01 -3.417165e-03 -3.241044e-04
6.813756e-04 4.150163e-06 -1.999969e+01 8.990117e-01 6.297336e+02 7.223308e+01 -3.337554e-06 1.991438e-06 -1.128361e-01 -3.321305e-03 -3.308806e-04
6.972216e-04 4.442695e-06 -2.044468e+01 8.986913e-01 6.290660e+02 7.220755e+01 -3.333357e-06 1.968313e-06 -1.144056e-01 -3.229499e-03 -3.375940e-04
7.130675e-04 4.748387e-06 -2.088832e+01 8.983638e-01 6.283844e+02 7.218146e+01 -3.328777e-06 1.944799e-06 -1.159988e-01 -3.141482e-03 -3.442434e-04
7.289135e-04 5.067499e-06 -2.133059e+01 8.980293e-01 6.276888e+02 7.215482e+01 -3.323800e-06 1.920905e-06 -1.176147e-01 -3.057011e-03 -3.508278e-04
7.447594e-04 5.400290e-06 -2.177145e+01 8.976878e-01 6.269795e+02 7.212763e+01 -3.318409e-06 1.896639e-06 -1.192526e-01 -2.975864e-03 -3.573462e-04
7.606054e-04 5.747011e-06 -2.221088e+01 8.973394e-01 6.262564e+02 7.209989e+01 -3.312590e-06 1.872012e-06 -1.209118e-01 -2.897838e-03 -3.637977e-04
7.764513e-04 6.107917e-06 -2.264886e+01 8.969839e-01 6.255196e+02 7.207160e+01 -3.306328e-06 1.847031e-06 -1.225914e-01 -2.822746e-03 -3.701811e-04
7.922973e-04 6.483255e-06 -2.308535e+01 8.966216e-01 6.247694e+02 7.204278e+01 -3.299606e-06 1.821707e-06 -1.242906e-01 -2.750416e-03 -3.764957e-04
8.081432e-04 6.873271e-06 -2.352035e+01 8.962523e-01 6.240056e+02 7.201341e+01 -3.292411e-06 1.796048e-06 -1.260086e-01 -2.680691e-03 -3.827404e-04
8.239892e-04 7.278211e-06 -2.395380e+01 8.958762e-01 6.232285e+02 7.198350e+01 -3.284727e-06 1.770064e-06 -1.277447e-01 -2.613424e-03 -3.889144e-04
8.398351e-04 7.698314e-06 -2.438571e+01 8.954932e-01 6.224382e+02 7.195306e+01 -3.276540e-06 1.743765e-06 -1.294979e-01 -2.548480e-03 -3.950167e-04
8.556810e-04 8.133818e-06 -2.481603e+01 8.951034e-01 6.216347e+02 7.192209e+01 -3.267835e-06 1.717161e-06 -1.312675e-01 -2.485735e-03 -4.010467e-04
8.715270e-04 8.584960e-06 -2.524475e+01 8.947068e-01 6.208181e+02 7.189058e+01 -3.258597e-06 1.690260e-06 -1.330526e-01 -2.425074e-03 -4.070033e-04
8.873729e-04 9.051971e-06 -2.567184e+01 8.943033e-01 6.199886e+02 7.185855e+01 -3.248813e-06 1.663072e-06 -1.348524e-01 -2.366387e-03 -4.128859e-04
9.032189e-04 9.535081e-06 -2.609728e+01 8.938932e-01 6.191462e+02 7.182599e+01 -3.238469e-06 1.635608e-06 -1.366662e-01 -2.309577e-03 -4.186937e-04
9.190648e-04 1.003452e-05 -2.652105e+01 8.934763e-01 6.182911e+02 7.179291e+01 -3.227550e-06 1.607877e-06 -1.384930e-01 -2.254549e-03 -4.244259e-04
9.349108e-04 1.055050e-05 -2.694312e+01 8.930527e-01 6.174234e+02 7.175930e+01 -3.216044e-06 1.579889e-06 -1.403321e-01 -2.201217e-03 -4.300818e-04
9.507567e-04 1.108326e-05 -2.736346e+01 8.926224e-01 6.165430e+02 7.172518e+01 -3.203937e-06 1.551654e-06 -1.421825e-01 -2.149501e-03 -4.356608e-04
9.666027e-04 1.163300e-05 -2.778207e+01 8.921855e-01 6.156503e+02 7.169055e+01 -3.191217e-06 1.523182e-06 -1.440436e-01 -2.099325e-03 -4.411622e-04
9.824486e-04 1.219994e-05 -2.819891e+01 8.917420e-01 6.147453e+02 7.165540e+01 -3.177871e-06 1.494483e-06 -1.459144e-01 -2.050618e-03 -4.465853e-04
9.982946e-04 1.278430e-05 -2.861396e+01 8.912918e-01 6.138280e+02 7.161974e+01 -3.163886e-06 1.465567e-06 -1.477941e-01 -2.003314e-03 -4.519296e-04
1.014140e-03 1.338628e-05 -2.902721e+01 8.908351e-01 6.128986e+02 7.158358e+01 -3.149252e-06 1.436443e-06 -1.496819e-01 -1.957352e-03 -4.571945e-04
1.029986e-03 1.400609e-05 -2.943862e+01 8.903719e-01 6.119573e+02 7.154691e+01 -3.133956e-06 1.407123e-06 -1.515769e-01 -1.912673e-03 -4.623793e-04
1.045832e-03 1.464393e-05 -2.984819e+01 8.899022e-01 6.110040e+02 7.150974e+01 -3.117987e-06 1.377615e-06 -1.534785e-01 -1.869222e-03 -4.674837e-04
1.061678e-03 1.529999e-05 -3.025589e+01 8.894260e-01 6.100390e+02 7.147208e+01 -3.101335e-06 1.347931e-06 -1.553856e-01 -1.826949e-03 -4.725071e-04
1.077524e-03 1.597448e-05 -3.066170e+01 8.889433e-01 6.090624e+02 7.143392e+01 -3.083989e-06 1.318080e-06 -1.572976e-01 -1.785805e-03 -4.774490e-04
1.093370e-03 1.666759e-05 -3.106559e+01 8.884543e-01 6.080742e+02 7.139526e+01 -3.065939e-06 1.288071e-06 -1.592135e-01 -1.745745e-03 -4.823091e-04
1.109216e-03 1.737951e-05 -3.146756e+01 8.879588e-01 6.070747e+02 7.135612e+01 -3.047176e-06 1.257916e-06 -1.611326e-01 -1.706726e-03 -4.870868e-04
1.125062e-03 1.811041e-05 -3.186758e+01 8.874570e-01 6.060638e+02 7.131649e+01 -3.027691e-06 1.227624e-06 -1.630542e-01 -1.668707e-03 -4.917818e-04
1.140908e-03 1.886050e-05 -3.226564e+01 8.869489e-01 6.050417e+02 7.127638e+01 -3.007475e-06 1.197205e-06 -1.649773e-01 -1.631650e-03 -4.963937e-04
1.156754e-03 1.962994e-05 -3.266170e+01 8.864345e-01 6.040086e+02 7.123579e+01 -2.986520e-06 1.166670e-06 -1.669012e-01 -1.595519e-03 -5.009222e-04
1.172600e-03 2.041891e-05 -3.305577e+01 8.859138e-01 6.029646e+02 7.119472e+01 -2.964818e-06 1.136027e-06 -1.688251e-01 -1.560280e-03 -5.053670e-04
1.188446e-03 2.122758e-05 -3.344781e+01 8.853869e-01 6.019097e+02 7.115318e+01 -2.942362e-06 1.105287e-06 -1.707482e-01 -1.525901e-03 -5.097278e-04
1.204292e-03 2.205613e-05 -3.383781e+01 8.848538e-01 6.008441e+02 7.111117e+01 -2.919144e-06 1.074460e-06 -1.726697e-01 -1.492351e-03 -5.140044e-04
1.220138e-03 2.290473e-05 -3.422576e+01 8.843145e-01 5.997680e+02 7.106869e+01 -2.895160e-06 1.043556e-06 -1.745890e-01 -1.459601e-03 -5.181964e-04
1.235984e-03 2.377352e-05 -3.461164e+01 8.837691e-01 5.986814e+02 7.102574e+01 -2.870403e-06 1.012584e-06 -1.765051e-01 -1.427624e-03 -5.223038e-04
1.251830e-03 2.466268e-05 -3.499542e+01 8.832176e-01 5.975844e+02 7.098234e+01 -2.844867e-06 9.815537e-07 -1.784174e-01 -1.396392e-03 -5.263263e-04
1.267676e-03 2.557236e-05 -3.537710e+01 8.826601e-01 5.964773e+02 7.093847e+01 -2.818548e-06 9.504755e-07 -1.803252e-01 -1.365883e-03 -5.302638e-04
1.283522e-03 2.650272e-05 -3.575666e+01 8.820965e-01 5.953601e+02 7.089416e+01 -2.791442e-06 9.193586e-07 -1.822276e-01 -1.336071e-03 -5.341161e-04
1.299368e-03 2.745390e-05 -3.613408e+01 8.815269e-01 5.942329e+02 7.084939e+01 -2.763545e-06 8.882125e-07 -1.841240e-01 -1.306935e-03 -5.378831e-04
1.315213e-03 2.842604e-05 -3.650935e+01 8.809514e-01 5.930959e+02 7.080417e+01 -2.734853e-06 8.570467e-07 -1.860136e-01 -1.278452e-03 -5.415649e-04
1.331059e-03 2.941930e-05 -3.688246e+01 8.803699e-01 5.919492e+02 7.075851e+01 -2.705364e-06 8.258706e-07 -1.878957e-01 -1.250603e-03 -5.451612e-04
1.346905e-03 3.043381e-05 -3.725338e+01 8.797825e-01 5.907929e+02 7.071241e+01 -2.675076e-06 7.946934e-07 -1.897697e-01 -1.223369e-03 -5.486721e-04
1.362751e-03 3.146971e-05 -3.762211e+01 8.791893e-01 5.896271e+02 7.066587e+01 -2.643987e-06 7.635245e-07 -1.916348e-01 -1.196729e-03 -5.520975e-04
1.378597e-03 3.252713e-05 -3.798863e+01 8.785902e-01 5.884520e+02 7.061889e+01 -2.612095e-06 7.323728e-07 -1.934904e-01 -1.170668e-03 -5.554376e-04
1.394443e-03 3.360620e-05 -3.835293e+01 8.779853e-01 5.872678e+02 7.057148e+01 -2.579401e-06 7.012476e-07 -1.953358e-01 -1.145168e-03 -5.586923e-04
1.410289e-03 3.470705e-05 -3.871500e+01 8.773747e-01 5.860744e+02 7.052365e+01 -2.545903e-06 6.701576e-07 -1.971703e-01 -1.120212e-03 -5.618616e-04
1.426135e-03 3.582980e-05 -3.907481e+01 8.767584e-01 5.848721e+02 7.047539e+01 -2.511603e-06 6.391119e-07 -1.989932e-01 -1.095786e-03 -5.649458e-04
1.441981e-03 3.697456e-05 -3.943237e+01 8.761364e-01 5.836610e+02 7.042671e+01 -2.476502e-06 6.081191e-07 -2.008041e-01 -1.071874e-03 -5.679448e-04
1.457827e-03 3.814146e-05 -3.978766e+01 8.755087e-01 5.824412e+02 7.037762e+01 -2.440600e-06 5.771878e-07 -2.026021e-01 -1.048463e-03 -5.708588e-04
1.473673e-03 3.933060e-05 -4.014066e+01 8.748755e-01 5.812128e+02 7.032810e+01 -2.403900e-06 5.463267e-07 -2.043868e-01 -1.025538e-03 -5.736880e-04
1.489519e-03 4.054210e-05 -4.049137e+01 8.742366e-01 5.799760e+02 7.027818e+01 -2.366404e-06 5.155442e-07 -2.061575e-01 -1.003087e-03 -5.764325e-04
1.505365e-03 4.177606e-05 -4.083977e+01 8.735922e-01 5.787308e+02 7.022786e+01 -2.328116e-06 4.848485e-07 -2.079136e-01 -9.810970e-04 -5.790926e-04
1.521211e-03 4.303259e-05 -4.118585e+01 8.729424e-01 5.774776e+02 7.017712e+01 -2.289039e-06 4.542480e-07 -2.096546e-01 -9.595564e-04 -5.816684e-04
1.537057e-03 4.431178e-05 -4.152961e+01 8.722870e-01 5.762162e+02 7.012599e+01 -2.249177e-06 4.237507e-07 -2.113799e-01 -9.384535e-04 -5.841603e-04
1.552903e-03 4.561372e-05 -4.187103e+01 8.716262e-01 5.749469e+02 7.007446e+01 -2.208534e-06 3.933645e-07 -2.130889e-01 -9.177771e-04 -5.865683e-04
1.568749e-03 4.693852e-05 -4.221011e+01 8.709601e-01 5.736699e+02 7.002254e+01 -2.167116e-06 3.630974e-07 -2.147811e-01 -8.975169e-04 -5.888929e-04
1.584595e-03 4.828625e-05 -4.254683e+01 8.702885e-01 5.723852e+02 6.997023e+01 -2.124928e-06 3.329571e-07 -2.164559e-01 -8.776623e-04 -5.911344e-04
1.600440e-03 4.965701e-05 -4.288119e+01 8.696117e-01 5.710929e+02 6.991754e+01 -2.081976e-06 3.029511e-07 -2.181130e-01 -8.582037e-04 -5.932929e-04
1.616286e-03 5.105088e-05 -4.321317e+01 8.689296e-01 5.697933e+02 6.986446e+01 -2.038267e-06 2.730870e-07 -2.197516e-01 -8.391315e-04 -5.953690e-04
1.632132e-03 5.246793e-05 -4.354277e+01 8.682422e-01 5.684863e+02 6.981100e+01 -1.993808e-06 2.433720e-07 -2.213715e-01 -8.204366e-04 -5.973628e-04
1.647978e-03 5.390824e-05 -4.386998e+01 8.675496e-01 5.671722e+02 6.975717e+01 -1.948606e-06 2.138134e-07 -2.229721e-01 -8.021102e-04 -5.992749e-04
1.663824e-03 5.537189e-05 -4.419479e+01 8.668519e-01 5.658511e+02 6.970297e+01 -1.902669e-06 1.844183e-07 -2.245528e-01 -7.841438e-04 -6.011055e-04
1.679670e-03 5.685894e-05 -4.451720e+01 8.661490e-01 5.645231e+02 6.964839e+01 -1.856006e-06 1.551935e-07 -2.261134e-01 -7.665292e-04 -6.028552e-04
1.695516e-03 5.836947e-05 -4.483720e+01 8.654411e-01 5.631884e+02 6.959346e+01 -1.808625e-06 1.261460e-07 -2.276534e-01 -7.492585e-04 -6.045243e-04
1.711362e-03 5.990352e-05 -4.515478e+01 8.647281e-01 5.618470e+02 6.953816e+01 -1.760535e-06 9.728231e-08 -2.291723e-01 -7.323241e-04 -6.061132e-04
1.727208e-03 6.146117e-05 -4.546994e+01 8.640101e-01 5.604991e+02 6.948251e+01 -1.711747e-06 6.860898e-08 -2.306697e-01 -7.157185e-04 -6.076225e-04
1.743054e-03 6.304246e-05 -4.578266e+01 8.632871e-01 5.591448e+02 6.942650e+01 -1.662271e-06 4.013240e-08 -2.321452e-01 -6.994347e-04 -6.090525e-04
1.758900e-03 6.464746e-05 -4.609295e+01 8.625591e-01 5.577842e+02 6.937014e+01 -1.612116e-06 1.185878e-08 -2.335986e-01 -6.834657e-04 -6.104039e-04
1.774746e-03 6.627620e-05 -4.640080e+01 8.618263e-01 5.564175e+02 6.931344e+01 -1.561294e-06 -1.620578e-08 -2.350293e-01 -6.678049e-04 -6.116770e-04
1.790592e-03 6.792875e-05 -4.670620e+01 8.610886e-01 5.550449e+02 6.925640e+01 -1.509816e-06 -4.405535e-08 -2.364370e-01 -6.524458e-04 -6.128724e-04
1.806438e-03 6.960513e-05 -4.700915e+01 8.603461e-01 5.536663e+02 6.919901e+01 -1.457695e-06 -7.168413e-08 -2.378215e-01 -6.373821e-04 -6.139907e-04
1.822284e-03 7.130540e-05 -4.730965e+01 8.595988e-01 5.522820e+02 6.914129e+01 -1.404941e-06 -9.908647e-08 -2.391823e-01 -6.226078e-04 -6.150323e-04
1.838130e-03 7.302959e-05 -4.760768e+01 8.588468e-01 5.508921e+02 6.908324e+01 -1.351567e-06 -1.262569e-07 -2.405192e-01 -6.081170e-04 -6.159979e-04
1.853976e-03 7.477773e-05 -4.790325e+01 8.580901e-01 5.494966e+02 6.902486e+01 -1.297586e-06 -1.531900e-07 -2.418319e-01 -5.939039e-04 -6.168880e-04
1.869822e-03 7.654986e-05 -4.819635e+01 8.573287e-01 5.480958e+02 6.896616e+01 -1.243012e-06 -1.798807e-07 -2.431200e-01 -5.799631e-04 -6.177031e-04
1.885667e-03 7.834600e-05 -4.848698e+01 8.565627e-01 5.466898e+02 6.890713e+01 -1.187857e-06 -2.063239e-07 -2.443834e-01 -5.662892e-04 -6.184440e-04
1.901513e-03 8.016618e-05 -4.877514e+01 8.557921e-01 5.452786e+02 6.884779e+01 -1.132135e-06 -2.325146e-07 -2.456217e-01 -5.528769e-04 -6.191112e-04
1.917359e-03 8.201043e-05 -4.906082e+01 8.550169e-01 5.438624e+02 6.878813e+01 -1.075860e-06 -2.584482e-07 -2.468347e-01 -5.397212e-04 -6.197053e-04
1.933205e-03 8.387875e-05 -4.934402e+01 8.542372e-01 5.424413e+02 6.872817e+01 -1.019047e-06 -2.841200e-07 -2.480222e-01 -5.268171e-04 -6.202270e-04
1.949051e-03 8.577117e-05 -4.962474e+01 8.534531e-01 5.410154e+02 6.866790e+01 -9.617105e-07 -3.095256e-07 -2.491840e-01 -5.141599e-04 -6.206768e-04
1.964897e-03 8.768771e-05 -4.990298e+01 8.526646e-01 5.395849e+02 6.860732e+01 -9.038645e-07 -3.346607e-07 -2.503198e-01 -5.017449e-04 -6.210556e-04
1.980743e-03 8.962836e-05 -5.017873e+01 8.518716e-01 5.381499e+02 6.854645e+01 -8.455244e-07 -3.595212e-07 -2.514294e-01 -4.895676e-04 -6.213638e-04
1.996589e-03 9.159315e-05 -5.045200e+01 8.510743e-01 5.367105e+02 6.848528e+01 -7.867057e-07 -3.841030e-07 -2.525128e-01 -4.776235e-04 -6.216022e-04
2.012435e-03 9.358207e-05 -5.072279e+01 8.502727e-01 5.352668e+02 6.842382e+01 -7.274238e-07 -4.084023e-07 -2.535696e-01 -4.659084e-04 -6.217715e-04
2.028281e-03 9.559514e-05 -5.099108e+01 8.494668e-01 5.338190e+02 6.836207e+01 -6.676946e-07 -4.324155e-07 -2.545998e-01 -4.544180e-04 -6.218724e-04
2.044127e-03 9.763233e-05 -5.125689e+01 8.486567e-01 5.323671e+02 6.830004e+01 -6.075339e-07 -4.561389e-07 -2.556032e-01 -4.431483e-04 -6.219055e-04
2.059973e-03 9.969367e-05 -5.152021e+01 8.478424e-01 5.309113e+02 6.823772e+01 -5.469579e-07 -4.795692e-07 -2.565796e-01 -4.320954e-04 -6.218716e-04
2.075819e-03 1.017791e-04 -5.178104e+01 8.470240e-01 5.294517e+02 6.817513e+01 -4.859829e-07 -5.027032e-07 -2.575291e-01 -4.212552e-04 -6.217714e-04
2.091665e-03 1.038887e-04 -5.203939e+01 8.462014e-01 5.279884e+02 6.811226e+01 -4.246254e-07 -5.255377e-07 -2.584513e-01 -4.106240e-04 -6.216055e-04
2.107511e-03 1.060224e-04 -5.229525e+01 8.453748e-01 5.265215e+02 6.804913e+01 -3.629021e-07 -5.480698e-07 -2.593464e-01 -4.001982e-04 -6.213749e-04
