  radius   |   mu   |   psi   |   phi   |   pressure   |   rho   |  indepres |   res1   |   res2   |   res3   |   res4   |  
0.000000e+00 9.862101e-37 0.000000e+00 9.058837e-01 6.496327e+02 7.298604e+01 0.000000e+00 0.000000e+00 0.000000e+00 0.000000e+00 0.000000e+00
5.070702e-04 1.301091e-06 -1.516384e+01 9.020391e-01 6.378549e+02 7.254227e+01 inf 2.252071e-03 -2.624760e+02 -5.960963e+00 -2.838162e-01
1.014140e-03 1.258630e-05 -2.919241e+01 8.907933e-01 6.134199e+02 7.160387e+01 -2.907083e-03 1.463404e-03 -1.641656e+02 -2.126744e+00 -4.658578e-01
1.521211e-03 4.191149e-05 -4.135755e+01 8.729064e-01 5.773701e+02 7.017277e+01 -2.226266e-03 4.733447e-04 -2.223311e+02 -1.025366e+00 -5.925511e-01
2.028281e-03 9.420788e-05 -5.115248e+01 8.494518e-01 5.333886e+02 6.834369e+01 -6.495090e-04 -4.237773e-04 -2.639888e+02 -4.894696e-01 -6.331440e-01
2.535351e-03 1.710380e-04 -5.841484e+01 8.216727e-01 4.854044e+02 6.622954e+01 1.394066e-03 -1.038665e-03 -2.805634e+02 -2.057999e-01 -6.046123e-01
3.042421e-03 2.711634e-04 -6.325875e+01 7.908241e-01 4.367852e+02 6.394008e+01 3.356531e-03 -1.322606e-03 -2.719179e+02 -6.271973e-02 -5.313742e-01
3.549492e-03 3.915191e-04 -6.597717e+01 7.580583e-01 3.899941e+02 6.157010e+01 4.815620e-03 -1.330510e-03 -2.450295e+02 -1.714584e-03 -4.371117e-01
4.056562e-03 5.281982e-04 -6.694713e+01 7.243573e-01 3.465703e+02 5.919445e+01 5.602259e-03 -1.160287e-03 -2.085506e+02 1.315877e-02 -3.397150e-01
4.563632e-03 6.772097e-04 -6.655824e+01 6.905090e-01 3.072875e+02 5.686768e+01 5.761849e-03 -9.061140e-04 -1.696418e+02 4.642729e-03 -2.502388e-01
5.070702e-03 8.349460e-04 -6.516839e+01 6.571117e-01 2.723698e+02 5.462652e+01 5.450967e-03 -6.366052e-04 -1.329894e+02 -1.334066e-02 -1.740554e-01
5.577773e-03 9.983990e-04 -6.308232e+01 6.245956e-01 2.416911e+02 5.249333e+01 4.848730e-03 -3.919123e-04 -1.010391e+02 -3.285644e-02 -1.126535e-01
6.084843e-03 1.165204e-03 -6.054564e+01 5.932516e-01 2.149302e+02 5.047965e+01 4.107697e-03 -1.898617e-04 -7.463733e+01 -4.989043e-02 -6.525889e-02
6.591913e-03 1.333592e-03 -5.774792e+01 5.632600e-01 1.916780e+02 4.858937e+01 3.337523e-03 -3.403327e-05 -5.366259e+01 -6.284474e-02 -3.001203e-02
7.098983e-03 1.502289e-03 -5.483015e+01 5.347175e-01 1.715043e+02 4.682117e+01 2.606960e-03 7.955156e-05 -3.750087e+01 -7.149165e-02 -4.709639e-03
7.606054e-03 1.670422e-03 -5.189354e+01 5.076593e-01 1.539969e+02 4.517046e+01 1.952929e-03 1.579566e-04 -2.535437e+01 -7.628952e-02 1.278242e-02
8.113124e-03 1.837421e-03 -4.900806e+01 4.820772e-01 1.387796e+02 4.363072e+01 1.390466e-03 2.087715e-04 -1.641927e+01 -7.796636e-02 2.433464e-02
8.620194e-03 2.002940e-03 -4.621993e+01 4.579336e-01 1.255207e+02 4.219449e+01 9.209805e-04 2.388680e-04 -9.974377e+00 -7.728763e-02 3.148965e-02
9.127264e-03 2.166795e-03 -4.355775e+01 4.351718e-01 1.139330e+02 4.085392e+01 5.382599e-04 2.539402e-04 -5.414958e+00 -7.494218e-02 3.546808e-02
9.634335e-03 2.328918e-03 -4.103744e+01 4.137239e-01 1.037709e+02 3.960127e+01 2.324505e-04 2.584561e-04 -2.255988e+00 -7.149829e-02 3.720689e-02
1.014140e-02 2.489317e-03 -3.866596e+01 3.935163e-01 9.482627e+01 3.842909e+01 -7.480844e-06 2.557938e-04 -1.205228e-01 -6.739803e-02 3.740840e-02
1.064848e-02 2.648054e-03 -3.644411e+01 3.744733e-01 8.692334e+01 3.733040e+01 -1.923423e-04 2.484385e-04 1.277622e+00 -6.296983e-02 3.658883e-02
1.115555e-02 2.805223e-03 -3.436862e+01 3.565198e-01 7.991406e+01 3.629874e+01 -3.319981e-04 2.381783e-04 2.151853e+00 -5.844794e-02 3.512102e-02
1.166262e-02 2.960940e-03 -3.243362e+01 3.395831e-01 7.367372e+01 3.532819e+01 -4.350679e-04 2.262748e-04 2.659037e+00 -5.399256e-02 3.326976e-02
1.216969e-02 3.115328e-03 -3.063169e+01 3.235938e-01 6.809724e+01 3.441336e+01 -5.088699e-04 2.136005e-04 2.913109e+00 -4.970787e-02 3.121986e-02
1.267676e-02 3.268517e-03 -2.895464e+01 3.084866e-01 6.309589e+01 3.354936e+01 -5.594928e-04 2.007461e-04 2.995965e+00 -4.565706e-02 2.909769e-02
1.318383e-02 3.420635e-03 -2.739398e+01 2.942002e-01 5.859461e+01 3.273179e+01 -5.919276e-04 1.881002e-04 2.965895e+00 -4.187401e-02 2.698751e-02
1.369090e-02 3.571808e-03 -2.594127e+01 2.806779e-01 5.452972e+01 3.195668e+01 -6.102209e-04 1.759088e-04 2.863985e+00 -3.837240e-02 2.494359e-02
1.419797e-02 3.722156e-03 -2.458834e+01 2.678668e-01 5.084702e+01 3.122044e+01 -6.176248e-04 1.643182e-04 2.718886e+00 -3.515224e-02 2.299907e-02
1.470504e-02 3.871793e-03 -2.332740e+01 2.557185e-01 4.750025e+01 3.051986e+01 -6.167352e-04 1.534063e-04 2.550328e+00 -3.220480e-02 2.117242e-02
1.521211e-02 4.020826e-03 -2.215116e+01 2.441881e-01 4.444979e+01 2.985202e+01 -6.096117e-04 1.432045e-04 2.371689e+00 -2.951597e-02 1.947208e-02
1.571918e-02 4.169355e-03 -2.105280e+01 2.332344e-01 4.166157e+01 2.921432e+01 -5.978803e-04 1.337136e-04 2.191848e+00 -2.706871e-02 1.789978e-02
1.622625e-02 4.317473e-03 -2.002604e+01 2.228194e-01 3.910624e+01 2.860438e+01 -5.828182e-04 1.249142e-04 2.016526e+00 -2.484464e-02 1.645289e-02
1.673332e-02 4.465267e-03 -1.906509e+01 2.129085e-01 3.675838e+01 2.802008e+01 -5.654239e-04 1.167750e-04 1.849247e+00 -2.282515e-02 1.512605e-02
1.724039e-02 4.612817e-03 -1.816465e+01 2.034694e-01 3.459594e+01 2.745947e+01 -5.464737e-04 1.092578e-04 1.692016e+00 -2.099210e-02 1.391230e-02
1.774746e-02 4.760195e-03 -1.731985e+01 1.944728e-01 3.259969e+01 2.692082e+01 -5.265679e-04 1.023211e-04 1.545807e+00 -1.932826e-02 1.280390e-02
1.825453e-02 4.907469e-03 -1.652627e+01 1.858917e-01 3.075284e+01 2.640253e+01 -5.061673e-04 9.592226e-05 1.410907e+00 -1.781749e-02 1.179281e-02
1.876160e-02 5.054701e-03 -1.577987e+01 1.777009e-01 2.904069e+01 2.590316e+01 -4.856224e-04 9.001945e-05 1.287152e+00 -1.644491e-02 1.087109e-02
1.926867e-02 5.201948e-03 -1.507694e+01 1.698776e-01 2.745027e+01 2.542140e+01 -4.651974e-04 8.457239e-05 1.174098e+00 -1.519693e-02 1.003103e-02
1.977574e-02 5.349260e-03 -1.441414e+01 1.624006e-01 2.597018e+01 2.495603e+01 -4.450882e-04 7.954299e-05 1.071135e+00 -1.406118e-02 9.265398e-03
2.028281e-02 5.496687e-03 -1.378840e+01 1.552503e-01 2.459032e+01 2.450597e+01 -4.254373e-04 7.489564e-05 9.775683e-01 -1.302647e-02 8.567399e-03
2.078988e-02 5.644269e-03 -1.319694e+01 1.484085e-01 2.330175e+01 2.407022e+01 -4.063458e-04 7.059732e-05 8.926682e-01 -1.208274e-02 7.930777e-03
2.129695e-02 5.792047e-03 -1.263719e+01 1.418587e-01 2.209648e+01 2.364785e+01 -3.878822e-04 6.661765e-05 8.157077e-01 -1.122093e-02 7.349792e-03
2.180402e-02 5.940055e-03 -1.210685e+01 1.355852e-01 2.096743e+01 2.323801e+01 -3.700902e-04 6.292875e-05 7.459834e-01 -1.043293e-02 6.819205e-03
2.231109e-02 6.088326e-03 -1.160378e+01 1.295737e-01 1.990825e+01 2.283994e+01 -3.529939e-04 5.950515e-05 6.828293e-01 -9.711459e-03 6.334259e-03
2.281816e-02 6.236886e-03 -1.112604e+01 1.238109e-01 1.891324e+01 2.245290e+01 -3.366028e-04 5.632363e-05 6.256238e-01 -9.050011e-03 5.890644e-03
2.332523e-02 6.385763e-03 -1.067187e+01 1.182844e-01 1.797730e+01 2.207625e+01 -3.209155e-04 5.336304e-05 5.737932e-01 -8.442755e-03 5.484467e-03
2.383230e-02 6.534979e-03 -1.023964e+01 1.129826e-01 1.709583e+01 2.170937e+01 -3.059219e-04 5.060417e-05 5.268124e-01 -7.884475e-03 5.112212e-03
2.433937e-02 6.684553e-03 -9.827860e+00 1.078948e-01 1.626467e+01 2.135169e+01 -2.916059e-04 4.802954e-05 4.842032e-01 -7.370500e-03 4.770712e-03
2.484644e-02 6.834503e-03 -9.435160e+00 1.030109e-01 1.548008e+01 2.100269e+01 -2.779471e-04 4.562327e-05 4.455324e-01 -6.896649e-03 4.457114e-03
2.535351e-02 6.984844e-03 -9.060288e+00 9.832166e-02 1.473865e+01 2.066188e+01 -2.649220e-04 4.337094e-05 4.104086e-01 -6.459173e-03 4.168850e-03
2.586058e-02 7.135588e-03 -8.702092e+00 9.381828e-02 1.403730e+01 2.032880e+01 -2.525051e-04 4.125944e-05 3.784793e-01 -6.054712e-03 3.903604e-03
2.636765e-02 7.286746e-03 -8.359511e+00 8.949256e-02 1.337321e+01 2.000303e+01 -2.406698e-04 3.927683e-05 3.494277e-01 -5.680249e-03 3.659296e-03
2.687472e-02 7.438327e-03 -8.031566e+00 8.533685e-02 1.274384e+01 1.968418e+01 -2.293887e-04 3.741224e-05 3.229692e-01 -5.333074e-03 3.434048e-03
2.738179e-02 7.590337e-03 -7.717358e+00 8.134394e-02 1.214684e+01 1.937187e+01 -2.186345e-04 3.565579e-05 2.988484e-01 -5.010748e-03 3.226170e-03
2.788886e-02 7.742781e-03 -7.416054e+00 7.750709e-02 1.158007e+01 1.906576e+01 -2.083801e-04 3.399844e-05 2.768362e-01 -4.711079e-03 3.034137e-03
2.839593e-02 7.895662e-03 -7.126887e+00 7.381994e-02 1.104158e+01 1.876553e+01 -1.985990e-04 3.243195e-05 2.567275e-01 -4.432089e-03 2.856574e-03
2.890300e-02 8.048980e-03 -6.849146e+00 7.027653e-02 1.052957e+01 1.847087e+01 -1.892652e-04 3.094877e-05 2.383382e-01 -4.171993e-03 2.692239e-03
2.941007e-02 8.202736e-03 -6.582174e+00 6.687122e-02 1.004240e+01 1.818150e+01 -1.803537e-04 2.954199e-05 2.215033e-01 -3.929180e-03 2.540011e-03
2.991714e-02 8.356926e-03 -6.325363e+00 6.359870e-02 9.578543e+00 1.789714e+01 -1.718403e-04 2.820530e-05 2.060748e-01 -3.702193e-03 2.398875e-03
3.042421e-02 8.511547e-03 -6.078146e+00 6.045398e-02 9.136599e+00 1.761754e+01 -1.637018e-04 2.693285e-05 1.919201e-01 -3.489712e-03 2.267913e-03
3.093129e-02 8.666593e-03 -5.840002e+00 5.743231e-02 8.715278e+00 1.734247e+01 -1.559162e-04 2.571930e-05 1.789199e-01 -3.290541e-03 2.146294e-03
3.143836e-02 8.822058e-03 -5.610442e+00 5.452922e-02 8.313384e+00 1.707169e+01 -1.484620e-04 2.455971e-05 1.669671e-01 -3.103593e-03 2.033264e-03
3.194543e-02 8.977933e-03 -5.389016e+00 5.174047e-02 7.929813e+00 1.680499e+01 -1.413193e-04 2.344951e-05 1.559655e-01 -2.927881e-03 1.928138e-03
3.245250e-02 9.134208e-03 -5.175302e+00 4.906204e-02 7.563540e+00 1.654216e+01 -1.344686e-04 2.238446e-05 1.458286e-01 -2.762509e-03 1.830296e-03
3.295957e-02 9.290871e-03 -4.968909e+00 4.649013e-02 7.213616e+00 1.628302e+01 -1.278917e-04 2.136066e-05 1.364784e-01 -2.606656e-03 1.739173e-03
3.346664e-02 9.447910e-03 -4.769473e+00 4.402111e-02 6.879157e+00 1.602737e+01 -1.215711e-04 2.037443e-05 1.278448e-01 -2.459579e-03 1.654254e-03
3.397371e-02 9.605309e-03 -4.576654e+00 4.165154e-02 6.559342e+00 1.577505e+01 -1.154903e-04 1.942238e-05 1.198644e-01 -2.320593e-03 1.575073e-03
3.448078e-02 9.763054e-03 -4.390136e+00 3.937814e-02 6.253406e+00 1.552587e+01 -1.096334e-04 1.850132e-05 1.124800e-01 -2.189077e-03 1.501201e-03
3.498785e-02 9.921125e-03 -4.209622e+00 3.719780e-02 5.960638e+00 1.527970e+01 -1.039856e-04 1.760824e-05 1.056402e-01 -2.064460e-03 1.432251e-03
3.549492e-02 1.007950e-02 -4.034837e+00 3.510754e-02 5.680370e+00 1.503636e+01 -9.853234e-05 1.674032e-05 9.929815e-02 -1.946218e-03 1.367867e-03
3.600199e-02 1.023817e-02 -3.865524e+00 3.310452e-02 5.411984e+00 1.479572e+01 -9.326016e-05 1.589491e-05 9.341171e-02 -1.833872e-03 1.307723e-03
3.650906e-02 1.039710e-02 -3.701441e+00 3.118603e-02 5.154897e+00 1.455762e+01 -8.815599e-05 1.506945e-05 8.794262e-02 -1.726979e-03 1.251524e-03
3.701613e-02 1.055628e-02 -3.542365e+00 2.934947e-02 4.908566e+00 1.432195e+01 -8.320739e-05 1.426153e-05 8.285621e-02 -1.625134e-03 1.198997e-03
3.752320e-02 1.071567e-02 -3.388084e+00 2.759236e-02 4.672481e+00 1.408855e+01 -7.840243e-05 1.346884e-05 7.812099e-02 -1.527963e-03 1.149893e-03
3.803027e-02 1.087525e-02 -3.238404e+00 2.591231e-02 4.446165e+00 1.385731e+01 -7.372968e-05 1.268915e-05 7.370831e-02 -1.435122e-03 1.103983e-03
3.853734e-02 1.103499e-02 -3.093139e+00 2.430704e-02 4.229169e+00 1.362811e+01 -6.917811e-05 1.192030e-05 6.959200e-02 -1.346298e-03 1.061058e-03
3.904441e-02 1.119486e-02 -2.952118e+00 2.277436e-02 4.021073e+00 1.340081e+01 -6.473707e-05 1.116017e-05 6.574786e-02 -1.261203e-03 1.020928e-03
3.955148e-02 1.135483e-02 -2.815181e+00 2.131214e-02 3.821480e+00 1.317532e+01 -6.039622e-05 1.040672e-05 6.215305e-02 -1.179585e-03 9.834152e-04
4.005855e-02 1.151487e-02 -2.682178e+00 1.991837e-02 3.630018e+00 1.295150e+01 -5.614542e-05 9.657889e-06 5.878503e-02 -1.101229e-03 9.483628e-04
4.056562e-02 1.167493e-02 -2.552968e+00 1.859108e-02 3.446336e+00 1.272926e+01 -5.197471e-05 8.911661e-06 5.561983e-02 -1.025968e-03 9.156299e-04
4.107269e-02 1.183498e-02 -2.427421e+00 1.732837e-02 3.270103e+00 1.250847e+01 -4.787417e-05 8.165988e-06 5.262939e-02 -9.537010e-04 8.850979e-04
4.157976e-02 1.199499e-02 -2.305414e+00 1.612843e-02 3.101008e+00 1.228905e+01 -4.383383e-05 7.418783e-06 4.977754e-02 -8.844029e-04 8.566783e-04
4.208683e-02 1.215490e-02 -2.186833e+00 1.498949e-02 2.938757e+00 1.207087e+01 -3.984366e-05 6.667871e-06 4.701471e-02 -8.181381e-04 8.303259e-04
4.259390e-02 1.231468e-02 -2.071574e+00 1.390984e-02 2.783070e+00 1.185383e+01 -3.589355e-05 5.910932e-06 4.427185e-02 -7.550489e-04 8.060602e-04
4.310097e-02 1.247428e-02 -1.959540e+00 1.288781e-02 2.633685e+00 1.163783e+01 -3.197353e-05 5.145407e-06 4.145506e-02 -6.953114e-04 7.839954e-04
4.360804e-02 1.263364e-02 -1.850641e+00 1.192179e-02 2.490354e+00 1.142276e+01 -2.807399e-05 4.368380e-06 3.844388e-02 -6.390369e-04 7.643778e-04
4.411511e-02 1.279273e-02 -1.744800e+00 1.101022e-02 2.352841e+00 1.120851e+01 -2.418624e-05 3.576419e-06 3.509740e-02 -5.861066e-04 7.476258e-04
4.462218e-02 1.295148e-02 -1.641949e+00 1.015156e-02 2.220921e+00 1.099499e+01 -2.030298e-05 2.765411e-06 3.127331e-02 -5.359426e-04 7.343634e-04
4.512925e-02 1.310984e-02 -1.542036e+00 9.344310e-03 2.094382e+00 1.078208e+01 -1.641878e-05 1.930406e-06 2.686406e-02 -4.872483e-04 7.254309e-04
4.563632e-02 1.326775e-02 -1.445024e+00 8.586985e-03 1.973022e+00 1.056966e+01 -1.253022e-05 1.065544e-06 2.185160e-02 -4.377877e-04 7.218522e-04
4.614339e-02 1.342514e-02 -1.350900e+00 7.878120e-03 1.856650e+00 1.035763e+01 -8.635377e-06 1.641268e-07 1.637527e-02 -3.843131e-04 7.247375e-04
4.665046e-02 1.358196e-02 -1.259675e+00 7.216247e-03 1.745081e+00 1.014586e+01 -4.732533e-06 -7.810816e-07 1.079849e-02 -3.227664e-04 7.351084e-04
4.715753e-02 1.373813e-02 -1.171390e+00 6.599887e-03 1.638141e+00 9.934233e+00 -8.179600e-07 -1.777286e-06 5.749323e-03 -2.488589e-04 7.536464e-04
4.766460e-02 1.389359e-02 -1.086120e+00 6.027529e-03 1.535667e+00 9.722610e+00 3.116818e-06 -2.830848e-06 2.103726e-03 -1.590352e-04 7.803986e-04
4.817167e-02 1.404825e-02 -1.003972e+00 5.497617e-03 1.437500e+00 9.510861e+00 7.087662e-06 -3.946359e-06 8.851859e-04 -5.167071e-05 8.145023e-04
4.867874e-02 1.420203e-02 -9.250813e-01 5.008534e-03 1.343495e+00 9.298849e+00 1.111938e-05 -5.125863e-06 3.075325e-03 7.183615e-05 8.540177e-04
4.918581e-02 1.435486e-02 -8.496068e-01 4.558588e-03 1.253513e+00 9.086433e+00 1.524534e-05 -6.368519e-06 9.367127e-03 2.065274e-04 8.959541e-04
4.969288e-02 1.450665e-02 -7.777162e-01 4.146005e-03 1.167425e+00 8.873471e+00 1.950475e-05 -7.670980e-06 1.993058e-02 3.442762e-04 9.365389e-04
5.019995e-02 1.465729e-02 -7.095717e-01 3.768925e-03 1.085112e+00 8.659818e+00 2.393816e-05 -9.028579e-06 3.427755e-02 4.751778e-04 9.717024e-04
5.070702e-02 1.480669e-02 -6.453140e-01 3.425414e-03 1.006463e+00 8.445327e+00 2.858254e-05 -1.043718e-05 5.128980e-02 5.895925e-04 9.976779e-04
5.121410e-02 1.495475e-02 -5.850471e-01 3.113474e-03 9.313742e-01 8.229850e+00 3.346762e-05 -1.189534e-05 6.941500e-02 6.801823e-04 1.011562e-03
5.172117e-02 1.510135e-02 -5.288264e-01 2.831068e-03 8.597487e-01 8.013232e+00 3.861473e-05 -1.340627e-05 8.696910e-02 7.432734e-04 1.011697e-03
5.222824e-02 1.524637e-02 -4.766524e-01 2.576144e-03 7.914950e-01 7.795308e+00 4.403858e-05 -1.497942e-05 1.024460e-01 7.791800e-04 9.977895e-04
5.273531e-02 1.538970e-02 -4.284697e-01 2.346664e-03 7.265260e-01 7.575900e+00 4.975113e-05 -1.663142e-05 1.147445e-01 7.915575e-04 9.707841e-04
5.324238e-02 1.553119e-02 -3.841700e-01 2.140631e-03 6.647581e-01 7.354815e+00 5.576650e-05 -1.838662e-05 1.232682e-01 7.861732e-04 9.325533e-04
5.374945e-02 1.567071e-02 -3.436006e-01 1.956116e-03 6.061104e-01 7.131832e+00 6.210597e-05 -2.027748e-05 1.279033e-01 7.695693e-04 8.855188e-04
5.425652e-02 1.580810e-02 -3.065733e-01 1.791274e-03 5.505045e-01 6.906703e+00 6.880220e-05 -2.234531e-05 1.289156e-01 7.479778e-04 8.322892e-04
5.476359e-02 1.594320e-02 -2.728751e-01 1.644363e-03 4.978640e-01 6.679144e+00 7.590293e-05 -2.464162e-05 1.268146e-01 7.266480e-04 7.753768e-04
5.527066e-02 1.607583e-02 -2.422784e-01 1.513754e-03 4.481153e-01 6.448823e+00 8.347443e-05 -2.723053e-05 1.222243e-01 7.095802e-04 7.170110e-04
5.577773e-02 1.620582e-02 -2.145498e-01 1.397932e-03 4.011870e-01 6.215358e+00 9.160537e-05 -3.019278e-05 1.157820e-01 6.995598e-04 6.590449e-04
5.628480e-02 1.633297e-02 -1.894573e-01 1.295502e-03 3.570107e-01 5.978299e+00 1.004122e-04 -3.363190e-05 1.080709e-01 6.983695e-04 6.029343e-04
5.679187e-02 1.645705e-02 -1.667766e-01 1.205184e-03 3.155215e-01 5.737114e+00 1.100467e-04 -3.768365e-05 9.958477e-02 7.070766e-04 5.497631e-04
5.729894e-02 1.657783e-02 -1.462949e-01 1.125809e-03 2.766580e-01 5.491171e+00 1.207078e-04 -4.253057e-05 9.071458e-02 7.263296e-04 5.002961e-04
5.780601e-02 1.669506e-02 -1.278144e-01 1.056313e-03 2.403638e-01 5.239705e+00 1.326598e-04 -4.842484e-05 8.175052e-02 7.566354e-04 4.550430e-04
5.831308e-02 1.680846e-02 -1.111541e-01 9.957260e-04 2.065870e-01 4.981784e+00 1.462601e-04 -5.572515e-05 7.289105e-02 7.986168e-04 4.143235e-04
5.882015e-02 1.691770e-02 -9.615110e-02 9.431668e-04 1.752824e-01 4.716248e+00 1.620053e-04 -6.495876e-05 6.425386e-02 8.532710e-04 3.783298e-04
5.932722e-02 1.702244e-02 -8.266140e-02 8.978316e-04 1.464117e-01 4.441630e+00 1.806072e-04 -7.693073e-05 5.588415e-02 9.222761e-04 3.471868e-04
5.983429e-02 1.712228e-02 -7.056045e-02 8.589845e-04 1.199453e-01 4.156026e+00 2.031276e-04 -9.292687e-05 4.775549e-02 1.008425e-03 3.210136e-04
6.034136e-02 1.721673e-02 -5.974355e-02 8.259478e-04 9.586496e-02 3.856889e+00 2.312302e-04 -1.151180e-04 3.975536e-02 1.116347e-03 2.999981e-04
6.084843e-02 1.730526e-02 -5.012665e-02 7.980919e-04 7.416701e-02 3.540686e+00 2.676932e-04 -1.474362e-04 3.163677e-02 1.253867e-03 2.845081e-04
6.135550e-02 1.738718e-02 -4.164778e-02 7.748238e-04 5.486791e-02 3.202261e+00 3.175721e-04 -1.976959e-04 2.288305e-02 1.434857e-03 2.753006e-04
6.186257e-02 1.746164e-02 -3.427011e-02 7.555760e-04 3.801418e-02 2.833560e+00 3.912700e-04 -2.835700e-04 1.230387e-02 1.686101e-03 2.740013e-04
6.236964e-02 1.752748e-02 -2.798845e-02 7.397912e-04 2.370125e-02 2.420700e+00 5.148113e-04 -4.536090e-04 -3.428677e-03 2.067190e-03 2.844789e-04
6.287671e-02 1.758304e-02 -2.284470e-02 7.269032e-04 1.211632e-02 1.935564e+00 1.914927e-03 -8.945479e-04 -3.742067e-02 2.749145e-03 3.182598e-04
6.338378e-02 1.762543e-02 -1.897399e-02 7.163007e-04 4.034672e-03 1.050399e+00 2.283172e-03 4.092360e-03 3.752921e-01 6.133754e-03 5.445056e-04
6.389085e-02 1.764156e-02 -1.728131e-02 7.071087e-04 8.156785e-04 3.233562e-01 -1.254632e-04 2.891817e-03 2.435382e-01 2.127429e-03 2.464824e-04
6.439792e-02 1.764531e-02 -1.657455e-02 6.985251e-04 5.523206e-05 4.445464e-02 -4.032168e-04 1.539476e-03 1.191425e-01 -2.407123e-04 7.094211e-05
6.490499e-02 1.764548e-02 -1.615156e-02 6.902279e-04 0.000000e+00 0.000000e+00 0.000000e+00 0.000000e+00 0.000000e+00 0.000000e+00 0.000000e+00
6.541605e-02 1.764548e-02 -1.575350e-02 6.820753e-04 0.000000e+00 0.000000e+00 0.000000e+00 0.000000e+00 0.000000e+00 0.000000e+00 0.000000e+00
6.593523e-02 1.764548e-02 -1.536464e-02 6.739975e-04 0.000000e+00 0.000000e+00 -8.987976e-05 3.975999e-11 1.122505e-04 8.731037e+00 1.441216e-06
6.646271e-02 1.764548e-02 -1.498475e-02 6.659933e-04 0.000000e+00 0.000000e+00 -8.745952e-05 3.861675e-11 1.070823e-04 8.515194e+00 1.397468e-06
6.699870e-02 1.764548e-02 -1.461358e-02 6.580612e-04 0.000000e+00 0.000000e+00 -8.512540e-05 3.751217e-11 1.021783e-04 8.304304e+00 1.355404e-06
6.754341e-02 1.764548e-02 -1.425089e-02 6.502000e-04 0.000000e+00 0.000000e+00 -8.287360e-05 3.644621e-11 9.752315e-05 8.098237e+00 1.314944e-06
6.809704e-02 1.764548e-02 -1.389647e-02 6.424085e-04 0.000000e+00 0.000000e+00 -8.070053e-05 3.542179e-11 9.310272e-05 7.896864e+00 1.276016e-06
6.865983e-02 1.764548e-02 -1.355010e-02 6.346853e-04 0.000000e+00 0.000000e+00 -7.860278e-05 3.443389e-11 8.890364e-05 7.700062e+00 1.238550e-06
