  radius   |   mu   |   psi   |   phi   |   pressure   |   rho   |  indepres |   res1   |   res2   |   res3   |   res4   |  
0.000000e+00 1.434771e-33 0.000000e+00 9.058972e-01 6.442742e+02 7.278482e+01 0.000000e+00 0.000000e+00 0.000000e+00 0.000000e+00 0.000000e+00
3.169189e-05 3.190706e-10 -9.500458e-01 9.058821e-01 6.442282e+02 7.278308e+01 inf 1.006286e-05 -9.091810e-01 -3.882189e-01 -7.187294e-05
6.338378e-05 3.190285e-09 -1.899804e+00 9.058370e-01 6.441275e+02 7.277929e+01 -1.230672e-05 1.004829e-05 -3.356216e-01 -1.657579e-01 -1.315510e-04
9.507567e-05 1.116370e-08 -2.849036e+00 9.057617e-01 6.439646e+02 7.277315e+01 -1.300821e-05 1.002409e-05 -3.330705e-01 -1.076945e-01 -1.970570e-04
1.267676e-04 2.678526e-08 -3.797480e+00 9.056564e-01 6.437386e+02 7.276464e+01 -1.320714e-05 9.990299e-06 -3.257787e-01 -7.997128e-02 -2.620843e-04
1.584595e-04 5.259474e-08 -4.744875e+00 9.055210e-01 6.434493e+02 7.275374e+01 -1.329491e-05 9.946958e-06 -3.237425e-01 -6.360198e-02 -3.269368e-04
1.901513e-04 9.112375e-08 -5.690963e+00 9.053557e-01 6.430966e+02 7.274044e+01 -1.334326e-05 9.894140e-06 -3.245746e-01 -5.275930e-02 -3.915568e-04
2.218432e-04 1.448937e-07 -6.635485e+00 9.051604e-01 6.426807e+02 7.272476e+01 -1.337398e-05 9.831927e-06 -3.271745e-01 -4.503182e-02 -4.558813e-04
2.535351e-04 2.164137e-07 -7.578183e+00 9.049351e-01 6.422016e+02 7.270668e+01 -1.339548e-05 9.760422e-06 -3.310333e-01 -3.923601e-02 -5.198519e-04
2.852270e-04 3.081787e-07 -8.518801e+00 9.046801e-01 6.416598e+02 7.268623e+01 -1.341151e-05 9.679739e-06 -3.358912e-01 -3.472159e-02 -5.834136e-04
3.169189e-04 4.226677e-07 -9.457086e+00 9.043952e-01 6.410554e+02 7.266340e+01 -1.342383e-05 9.590008e-06 -3.416021e-01 -3.110124e-02 -6.465136e-04
3.486108e-04 5.623412e-07 -1.039279e+01 9.040807e-01 6.403887e+02 7.263820e+01 -1.343326e-05 9.491373e-06 -3.480753e-01 -2.812967e-02 -7.091008e-04
3.803027e-04 7.296400e-07 -1.132565e+01 9.037365e-01 6.396601e+02 7.261064e+01 -1.344014e-05 9.383994e-06 -3.552495e-01 -2.564398e-02 -7.711255e-04
4.119946e-04 9.269830e-07 -1.225543e+01 9.033629e-01 6.388700e+02 7.258073e+01 -1.344454e-05 9.268041e-06 -3.630794e-01 -2.353169e-02 -8.325394e-04
4.436865e-04 1.156765e-06 -1.318187e+01 9.029598e-01 6.380187e+02 7.254848e+01 -1.344633e-05 9.143700e-06 -3.715286e-01 -2.171263e-02 -8.932955e-04
4.753784e-04 1.421356e-06 -1.410475e+01 9.025274e-01 6.371068e+02 7.251390e+01 -1.344528e-05 9.011167e-06 -3.805658e-01 -2.012811e-02 -9.533477e-04
5.070702e-04 1.723098e-06 -1.502381e+01 9.020658e-01 6.361347e+02 7.247700e+01 -1.344110e-05 8.870653e-06 -3.901631e-01 -1.873419e-02 -1.012652e-03
5.387621e-04 2.064304e-06 -1.593882e+01 9.015752e-01 6.351030e+02 7.243780e+01 -1.343341e-05 8.722378e-06 -4.002940e-01 -1.749728e-02 -1.071164e-03
5.704540e-04 2.447256e-06 -1.684955e+01 9.010556e-01 6.340121e+02 7.239630e+01 -1.342184e-05 8.566574e-06 -4.109329e-01 -1.639132e-02 -1.128842e-03
6.021459e-04 2.874205e-06 -1.775576e+01 9.005073e-01 6.328626e+02 7.235252e+01 -1.340594e-05 8.403484e-06 -4.220546e-01 -1.539574e-02 -1.185646e-03
6.338378e-04 3.347366e-06 -1.865722e+01 8.999303e-01 6.316552e+02 7.230648e+01 -1.338528e-05 8.233359e-06 -4.336343e-01 -1.449410e-02 -1.241537e-03
6.655297e-04 3.868921e-06 -1.955373e+01 8.993248e-01 6.303905e+02 7.225819e+01 -1.335938e-05 8.056462e-06 -4.456467e-01 -1.367309e-02 -1.296476e-03
6.972216e-04 4.441013e-06 -2.044504e+01 8.986910e-01 6.290691e+02 7.220767e+01 -1.332778e-05 7.873062e-06 -4.580666e-01 -1.292186e-02 -1.350427e-03
7.289135e-04 5.065747e-06 -2.133096e+01 8.980290e-01 6.276917e+02 7.215493e+01 -1.329000e-05 7.683438e-06 -4.708685e-01 -1.223144e-02 -1.403356e-03
7.606054e-04 5.745189e-06 -2.221126e+01 8.973390e-01 6.262591e+02 7.209999e+01 -1.324556e-05 7.487875e-06 -4.840265e-01 -1.159435e-02 -1.455230e-03
7.922973e-04 6.481362e-06 -2.308574e+01 8.966213e-01 6.247718e+02 7.204287e+01 -1.319397e-05 7.286664e-06 -4.975146e-01 -1.100433e-02 -1.506017e-03
8.239892e-04 7.276249e-06 -2.395419e+01 8.958759e-01 6.232308e+02 7.198359e+01 -1.313476e-05 7.080105e-06 -5.113067e-01 -1.045607e-02 -1.555686e-03
8.556810e-04 8.131788e-06 -2.481643e+01 8.951030e-01 6.216368e+02 7.192217e+01 -1.306747e-05 6.868499e-06 -5.253761e-01 -9.945078e-03 -1.604211e-03
8.873729e-04 9.049872e-06 -2.567224e+01 8.943030e-01 6.199905e+02 7.185862e+01 -1.299163e-05 6.652156e-06 -5.396964e-01 -9.467475e-03 -1.651563e-03
9.190648e-04 1.003235e-05 -2.652145e+01 8.934759e-01 6.182928e+02 7.179297e+01 -1.290680e-05 6.431386e-06 -5.542408e-01 -9.019940e-03 -1.697719e-03
9.507567e-04 1.108102e-05 -2.736387e+01 8.926221e-01 6.165446e+02 7.172524e+01 -1.281255e-05 6.206506e-06 -5.689826e-01 -8.599590e-03 -1.742654e-03
9.824486e-04 1.219764e-05 -2.819932e+01 8.917416e-01 6.147466e+02 7.165545e+01 -1.270847e-05 5.977832e-06 -5.838951e-01 -8.203919e-03 -1.786348e-03
1.014140e-03 1.338392e-05 -2.902762e+01 8.908348e-01 6.128999e+02 7.158363e+01 -1.259417e-05 5.745685e-06 -5.989514e-01 -7.830733e-03 -1.828781e-03
1.045832e-03 1.464150e-05 -2.984861e+01 8.899019e-01 6.110051e+02 7.150979e+01 -1.246927e-05 5.510385e-06 -6.141251e-01 -7.478108e-03 -1.869934e-03
1.077524e-03 1.597199e-05 -3.066212e+01 8.889430e-01 6.090633e+02 7.143395e+01 -1.233342e-05 5.272254e-06 -6.293898e-01 -7.144346e-03 -1.909792e-03
1.109216e-03 1.737695e-05 -3.146799e+01 8.879585e-01 6.070755e+02 7.135615e+01 -1.218630e-05 5.031612e-06 -6.447193e-01 -6.827943e-03 -1.948340e-03
1.140908e-03 1.885787e-05 -3.226606e+01 8.869486e-01 6.050424e+02 7.127641e+01 -1.202762e-05 4.788781e-06 -6.600877e-01 -6.527564e-03 -1.985564e-03
1.172600e-03 2.041622e-05 -3.305620e+01 8.859135e-01 6.029651e+02 7.119474e+01 -1.185711e-05 4.544079e-06 -6.754694e-01 -6.242019e-03 -2.021455e-03
1.204292e-03 2.205339e-05 -3.383825e+01 8.848535e-01 6.008445e+02 7.111118e+01 -1.167453e-05 4.297824e-06 -6.908392e-01 -5.970243e-03 -2.056002e-03
1.235984e-03 2.377071e-05 -3.461207e+01 8.837688e-01 5.986817e+02 7.102575e+01 -1.147967e-05 4.050331e-06 -7.061725e-01 -5.711279e-03 -2.089197e-03
1.267676e-03 2.556949e-05 -3.537754e+01 8.826598e-01 5.964775e+02 7.093848e+01 -1.127235e-05 3.801910e-06 -7.214449e-01 -5.464267e-03 -2.121034e-03
1.299368e-03 2.745096e-05 -3.613452e+01 8.815266e-01 5.942330e+02 7.084939e+01 -1.105242e-05 3.552870e-06 -7.366327e-01 -5.228431e-03 -2.151509e-03
1.331059e-03 2.941631e-05 -3.688290e+01 8.803696e-01 5.919491e+02 7.075851e+01 -1.081979e-05 3.303515e-06 -7.517128e-01 -5.003066e-03 -2.180619e-03
1.362751e-03 3.146666e-05 -3.762255e+01 8.791890e-01 5.896270e+02 7.066586e+01 -1.057436e-05 3.054142e-06 -7.666625e-01 -4.787535e-03 -2.208363e-03
1.394443e-03 3.360309e-05 -3.835337e+01 8.779850e-01 5.872675e+02 7.057147e+01 -1.031610e-05 2.805046e-06 -7.814600e-01 -4.581255e-03 -2.234740e-03
1.426135e-03 3.582663e-05 -3.907525e+01 8.767581e-01 5.848718e+02 7.047538e+01 -1.004499e-05 2.556515e-06 -7.960840e-01 -4.383698e-03 -2.259752e-03
1.457827e-03 3.813823e-05 -3.978810e+01 8.755084e-01 5.824407e+02 7.037760e+01 -9.761048e-06 2.308830e-06 -8.105140e-01 -4.194378e-03 -2.283403e-03
1.489519e-03 4.053882e-05 -4.049180e+01 8.742363e-01 5.799755e+02 7.027816e+01 -9.464338e-06 2.062267e-06 -8.247301e-01 -4.012850e-03 -2.305696e-03
1.521211e-03 4.302925e-05 -4.118629e+01 8.729421e-01 5.774770e+02 7.017710e+01 -9.154945e-06 1.817093e-06 -8.387133e-01 -3.838705e-03 -2.326638e-03
1.552903e-03 4.561032e-05 -4.187147e+01 8.716259e-01 5.749463e+02 7.007444e+01 -8.832992e-06 1.573570e-06 -8.524455e-01 -3.671567e-03 -2.346236e-03
1.584595e-03 4.828280e-05 -4.254727e+01 8.702882e-01 5.723844e+02 6.997020e+01 -8.498632e-06 1.331950e-06 -8.659090e-01 -3.511089e-03 -2.364499e-03
1.616286e-03 5.104737e-05 -4.321360e+01 8.689293e-01 5.697925e+02 6.986443e+01 -8.152052e-06 1.092480e-06 -8.790874e-01 -3.356948e-03 -2.381437e-03
1.647978e-03 5.390468e-05 -4.387041e+01 8.675494e-01 5.671714e+02 6.975713e+01 -7.793468e-06 8.553955e-07 -8.919648e-01 -3.208846e-03 -2.397059e-03
1.679670e-03 5.685533e-05 -4.451764e+01 8.661488e-01 5.645222e+02 6.964836e+01 -7.423127e-06 6.209255e-07 -9.045262e-01 -3.066507e-03 -2.411380e-03
1.711362e-03 5.989985e-05 -4.515521e+01 8.647278e-01 5.618460e+02 6.953812e+01 -7.041304e-06 3.892896e-07 -9.167576e-01 -2.929672e-03 -2.424411e-03
1.743054e-03 6.303874e-05 -4.578309e+01 8.632868e-01 5.591437e+02 6.942646e+01 -6.648301e-06 1.606987e-07 -9.286458e-01 -2.798101e-03 -2.436168e-03
1.774746e-03 6.627243e-05 -4.640123e+01 8.618261e-01 5.564164e+02 6.931340e+01 -6.244451e-06 -6.464572e-08 -9.401783e-01 -2.671570e-03 -2.446665e-03
1.806438e-03 6.960131e-05 -4.700958e+01 8.603459e-01 5.536651e+02 6.919896e+01 -5.830106e-06 -2.865511e-07 -9.513437e-01 -2.549867e-03 -2.455919e-03
1.838130e-03 7.302571e-05 -4.760810e+01 8.588466e-01 5.508908e+02 6.908319e+01 -5.405649e-06 -5.048347e-07 -9.621313e-01 -2.432796e-03 -2.463947e-03
1.869822e-03 7.654593e-05 -4.819677e+01 8.573285e-01 5.480946e+02 6.896610e+01 -4.971480e-06 -7.193228e-07 -9.725314e-01 -2.320171e-03 -2.470768e-03
1.901513e-03 8.016221e-05 -4.877556e+01 8.557918e-01 5.452772e+02 6.884773e+01 -4.528023e-06 -9.298516e-07 -9.825351e-01 -2.211816e-03 -2.476400e-03
1.933205e-03 8.387472e-05 -4.934444e+01 8.542370e-01 5.424399e+02 6.872811e+01 -4.075722e-06 -1.136267e-06 -9.921342e-01 -2.107568e-03 -2.480863e-03
1.964897e-03 8.768363e-05 -4.990339e+01 8.526644e-01 5.395835e+02 6.860726e+01 -3.615038e-06 -1.338424e-06 -1.001322e+00 -2.007271e-03 -2.484177e-03
1.996589e-03 9.158903e-05 -5.045241e+01 8.510741e-01 5.367091e+02 6.848522e+01 -3.146450e-06 -1.536187e-06 -1.010091e+00 -1.910777e-03 -2.486364e-03
2.028281e-03 9.559097e-05 -5.099149e+01 8.494666e-01 5.338175e+02 6.836201e+01 -2.670452e-06 -1.729432e-06 -1.018436e+00 -1.817948e-03 -2.487445e-03
2.059973e-03 9.968945e-05 -5.152061e+01 8.478422e-01 5.309098e+02 6.823766e+01 -2.187550e-06 -1.918043e-06 -1.026353e+00 -1.728650e-03 -2.487442e-03
2.091665e-03 1.038844e-04 -5.203979e+01 8.462012e-01 5.279868e+02 6.811220e+01 -1.698264e-06 -2.101912e-06 -1.033838e+00 -1.642758e-03 -2.486378e-03
2.123357e-03 1.081759e-04 -5.254902e+01 8.445439e-01 5.250495e+02 6.798566e+01 -1.203124e-06 -2.280944e-06 -1.040886e+00 -1.560152e-03 -2.484276e-03
2.155049e-03 1.125636e-04 -5.304831e+01 8.428706e-01 5.220989e+02 6.785806e+01 -7.026674e-07 -2.455051e-06 -1.047497e+00 -1.480718e-03 -2.481160e-03
2.186740e-03 1.170475e-04 -5.353768e+01 8.411817e-01 5.191358e+02 6.772944e+01 -1.974411e-07 -2.624154e-06 -1.053667e+00 -1.404347e-03 -2.477054e-03
2.218432e-03 1.216273e-04 -5.401714e+01 8.394774e-01 5.161611e+02 6.759983e+01 3.120039e-07 -2.788184e-06 -1.059396e+00 -1.330934e-03 -2.471982e-03
2.250124e-03 1.263029e-04 -5.448671e+01 8.377580e-01 5.131757e+02 6.746925e+01 8.251117e-07 -2.947081e-06 -1.064683e+00 -1.260381e-03 -2.465969e-03
2.281816e-03 1.310739e-04 -5.494642e+01 8.360240e-01 5.101805e+02 6.733773e+01 1.341324e-06 -3.100793e-06 -1.069530e+00 -1.192591e-03 -2.459040e-03
2.313508e-03 1.359399e-04 -5.539629e+01 8.342755e-01 5.071763e+02 6.720530e+01 1.860081e-06 -3.249277e-06 -1.073936e+00 -1.127472e-03 -2.451220e-03
2.345200e-03 1.409008e-04 -5.583636e+01 8.325129e-01 5.041639e+02 6.707198e+01 2.380824e-06 -3.392498e-06 -1.077903e+00 -1.064938e-03 -2.442534e-03
2.376892e-03 1.459560e-04 -5.626665e+01 8.307365e-01 5.011443e+02 6.693780e+01 2.902994e-06 -3.530431e-06 -1.081433e+00 -1.004904e-03 -2.433008e-03
2.408584e-03 1.511052e-04 -5.668722e+01 8.289466e-01 4.981182e+02 6.680280e+01 3.426037e-06 -3.663056e-06 -1.084529e+00 -9.472873e-04 -2.422667e-03
2.440276e-03 1.563478e-04 -5.709809e+01 8.271436e-01 4.950864e+02 6.666699e+01 3.949401e-06 -3.790362e-06 -1.087195e+00 -8.920107e-04 -2.411536e-03
2.471967e-03 1.616835e-04 -5.749932e+01 8.253277e-01 4.920497e+02 6.653041e+01 4.472541e-06 -3.912348e-06 -1.089433e+00 -8.389984e-04 -2.399641e-03
2.503659e-03 1.671116e-04 -5.789095e+01 8.234992e-01 4.890090e+02 6.639308e+01 4.994918e-06 -4.029015e-06 -1.091249e+00 -7.881777e-04 -2.387008e-03
2.535351e-03 1.726317e-04 -5.827303e+01 8.216585e-01 4.859648e+02 6.625502e+01 5.516000e-06 -4.140376e-06 -1.092646e+00 -7.394783e-04 -2.373662e-03
2.567043e-03 1.782432e-04 -5.864562e+01 8.198058e-01 4.829180e+02 6.611627e+01 6.035266e-06 -4.246447e-06 -1.093631e+00 -6.928321e-04 -2.359628e-03
2.598735e-03 1.839454e-04 -5.900877e+01 8.179415e-01 4.798693e+02 6.597684e+01 6.552202e-06 -4.347254e-06 -1.094207e+00 -6.481736e-04 -2.344932e-03
2.630427e-03 1.897378e-04 -5.936253e+01 8.160658e-01 4.768195e+02 6.583677e+01 7.066305e-06 -4.442827e-06 -1.094382e+00 -6.054392e-04 -2.329599e-03
2.662119e-03 1.956196e-04 -5.970698e+01 8.141790e-01 4.737692e+02 6.569608e+01 7.577086e-06 -4.533202e-06 -1.094162e+00 -5.645673e-04 -2.313654e-03
2.693811e-03 2.015902e-04 -6.004218e+01 8.122815e-01 4.707191e+02 6.555479e+01 8.084065e-06 -4.618421e-06 -1.093553e+00 -5.254986e-04 -2.297122e-03
2.725503e-03 2.076489e-04 -6.036819e+01 8.103734e-01 4.676698e+02 6.541294e+01 8.586778e-06 -4.698531e-06 -1.092562e+00 -4.881751e-04 -2.280027e-03
2.757194e-03 2.137950e-04 -6.068507e+01 8.084552e-01 4.646221e+02 6.527053e+01 9.084772e-06 -4.773586e-06 -1.091197e+00 -4.525410e-04 -2.262393e-03
2.788886e-03 2.200277e-04 -6.099291e+01 8.065271e-01 4.615766e+02 6.512761e+01 9.577609e-06 -4.843643e-06 -1.089464e+00 -4.185419e-04 -2.244245e-03
2.820578e-03 2.263462e-04 -6.129177e+01 8.045894e-01 4.585338e+02 6.498418e+01 1.006487e-05 -4.908764e-06 -1.087372e+00 -3.861251e-04 -2.225607e-03
2.852270e-03 2.327498e-04 -6.158173e+01 8.026424e-01 4.554944e+02 6.484028e+01 1.054614e-05 -4.969016e-06 -1.084929e+00 -3.552395e-04 -2.206502e-03
2.883962e-03 2.392376e-04 -6.186286e+01 8.006863e-01 4.524590e+02 6.469593e+01 1.102104e-05 -5.024469e-06 -1.082142e+00 -3.258354e-04 -2.186952e-03
2.915654e-03 2.458088e-04 -6.213524e+01 7.987214e-01 4.494282e+02 6.455115e+01 1.148918e-05 -5.075198e-06 -1.079020e+00 -2.978645e-04 -2.166982e-03
2.947346e-03 2.524626e-04 -6.239896e+01 7.967481e-01 4.464025e+02 6.440596e+01 1.195021e-05 -5.121280e-06 -1.075572e+00 -2.712800e-04 -2.146614e-03
2.979038e-03 2.591981e-04 -6.265409e+01 7.947665e-01 4.433825e+02 6.426039e+01 1.240379e-05 -5.162798e-06 -1.071806e+00 -2.460362e-04 -2.125869e-03
3.010730e-03 2.660145e-04 -6.290072e+01 7.927769e-01 4.403686e+02 6.411446e+01 1.284959e-05 -5.199834e-06 -1.067730e+00 -2.220890e-04 -2.104770e-03
3.042421e-03 2.729108e-04 -6.313892e+01 7.907797e-01 4.373615e+02 6.396819e+01 1.328731e-05 -5.232477e-06 -1.063354e+00 -1.993951e-04 -2.083338e-03
3.074113e-03 2.798862e-04 -6.336880e+01 7.887751e-01 4.343615e+02 6.382159e+01 1.371665e-05 -5.260815e-06 -1.058687e+00 -1.779126e-04 -2.061593e-03
3.105805e-03 2.869397e-04 -6.359042e+01 7.867633e-01 4.313693e+02 6.367470e+01 1.413734e-05 -5.284941e-06 -1.053737e+00 -1.576009e-04 -2.039557e-03
3.137497e-03 2.940704e-04 -6.380389e+01 7.847446e-01 4.283852e+02 6.352754e+01 1.454912e-05 -5.304949e-06 -1.048514e+00 -1.384202e-04 -2.017250e-03
3.169189e-03 3.012774e-04 -6.400929e+01 7.827193e-01 4.254098e+02 6.338011e+01 1.495175e-05 -5.320935e-06 -1.043026e+00 -1.203321e-04 -1.994691e-03
3.200881e-03 3.085598e-04 -6.420671e+01 7.806876e-01 4.224434e+02 6.323245e+01 1.534502e-05 -5.332996e-06 -1.037283e+00 -1.032989e-04 -1.971900e-03
3.232573e-03 3.159165e-04 -6.439625e+01 7.786498e-01 4.194865e+02 6.308458e+01 1.572872e-05 -5.341231e-06 -1.031294e+00 -8.728415e-05 -1.948896e-03
3.264265e-03 3.233467e-04 -6.457799e+01 7.766060e-01 4.165395e+02 6.293650e+01 1.610265e-05 -5.345739e-06 -1.025068e+00 -7.225231e-05 -1.925697e-03
3.295957e-03 3.308493e-04 -6.475202e+01 7.745567e-01 4.136029e+02 6.278825e+01 1.646665e-05 -5.346624e-06 -1.018613e+00 -5.816880e-05 -1.902321e-03
3.327649e-03 3.384234e-04 -6.491845e+01 7.725019e-01 4.106769e+02 6.263984e+01 1.682057e-05 -5.343985e-06 -1.011939e+00 -4.499997e-05 -1.878786e-03
3.359340e-03 3.460680e-04 -6.507736e+01 7.704420e-01 4.077620e+02 6.249128e+01 1.716426e-05 -5.337926e-06 -1.005055e+00 -3.271309e-05 -1.855109e-03
3.391032e-03 3.537822e-04 -6.522885e+01 7.683772e-01 4.048585e+02 6.234260e+01 1.749761e-05 -5.328549e-06 -9.979701e-01 -2.127628e-05 -1.831306e-03
3.422724e-03 3.615649e-04 -6.537301e+01 7.663077e-01 4.019667e+02 6.219382e+01 1.782050e-05 -5.315958e-06 -9.906922e-01 -1.065855e-05 -1.807395e-03
3.454416e-03 3.694151e-04 -6.550995e+01 7.642337e-01 3.990871e+02 6.204495e+01 1.813284e-05 -5.300257e-06 -9.832305e-01 -8.297286e-07 -1.783390e-03
3.486108e-03 3.773318e-04 -6.563975e+01 7.621555e-01 3.962199e+02 6.189601e+01 1.843456e-05 -5.281548e-06 -9.755936e-01 8.239522e-06 -1.759307e-03
3.517800e-03 3.853141e-04 -6.576252e+01 7.600733e-01 3.933654e+02 6.174701e+01 1.872559e-05 -5.259935e-06 -9.677901e-01 1.657775e-05 -1.735161e-03
3.549492e-03 3.933610e-04 -6.587834e+01 7.579874e-01 3.905240e+02 6.159797e+01 1.900589e-05 -5.235520e-06 -9.598285e-01 2.421274e-05 -1.710966e-03
3.581184e-03 4.014714e-04 -6.598732e+01 7.558978e-01 3.876958e+02 6.144892e+01 1.927542e-05 -5.208405e-06 -9.517170e-01 3.117149e-05 -1.686736e-03
3.612876e-03 4.096443e-04 -6.608955e+01 7.538049e-01 3.848812e+02 6.129985e+01 1.953416e-05 -5.178693e-06 -9.434639e-01 3.748027e-05 -1.662486e-03
3.644567e-03 4.178788e-04 -6.618514e+01 7.517089e-01 3.820805e+02 6.115080e+01 1.978210e-05 -5.146485e-06 -9.350772e-01 4.316462e-05 -1.638228e-03
3.676259e-03 4.261739e-04 -6.627417e+01 7.496100e-01 3.792938e+02 6.100177e+01 2.001926e-05 -5.111879e-06 -9.265650e-01 4.824937e-05 -1.613974e-03
3.707951e-03 4.345284e-04 -6.635674e+01 7.475083e-01 3.765215e+02 6.085278e+01 2.024563e-05 -5.074976e-06 -9.179349e-01 5.275866e-05 -1.589738e-03
3.739643e-03 4.429416e-04 -6.643296e+01 7.454041e-01 3.737637e+02 6.070385e+01 2.046126e-05 -5.035873e-06 -9.091947e-01 5.671597e-05 -1.565530e-03
3.771335e-03 4.514123e-04 -6.650291e+01 7.432976e-01 3.710206e+02 6.055498e+01 2.066619e-05 -4.994667e-06 -9.003519e-01 6.014408e-05 -1.541363e-03
3.803027e-03 4.599395e-04 -6.656670e+01 7.411890e-01 3.682925e+02 6.040620e+01 2.086045e-05 -4.951455e-06 -8.914140e-01 6.306515e-05 -1.517247e-03
3.834719e-03 4.685224e-04 -6.662442e+01 7.390785e-01 3.655796e+02 6.025751e+01 2.104412e-05 -4.906330e-06 -8.823880e-01 6.550072e-05 -1.493194e-03
3.866411e-03 4.771598e-04 -6.667617e+01 7.369662e-01 3.628819e+02 6.010893e+01 2.121726e-05 -4.859385e-06 -8.732811e-01 6.747166e-05 -1.469212e-03
3.898103e-03 4.858508e-04 -6.672204e+01 7.348524e-01 3.601998e+02 5.996047e+01 2.137995e-05 -4.810712e-06 -8.641002e-01 6.899830e-05 -1.445313e-03
3.929794e-03 4.945945e-04 -6.676212e+01 7.327372e-01 3.575334e+02 5.981215e+01 2.153228e-05 -4.760400e-06 -8.548520e-01 7.010033e-05 -1.421504e-03
3.961486e-03 5.033898e-04 -6.679653e+01 7.306209e-01 3.548827e+02 5.966397e+01 2.167436e-05 -4.708539e-06 -8.455431e-01 7.079686e-05 -1.397797e-03
3.993178e-03 5.122358e-04 -6.682534e+01 7.285035e-01 3.522481e+02 5.951595e+01 2.180627e-05 -4.655215e-06 -8.361800e-01 7.110648e-05 -1.374198e-03
4.024870e-03 5.211316e-04 -6.684865e+01 7.263853e-01 3.496295e+02 5.936811e+01 2.192814e-05 -4.600512e-06 -8.267689e-01 7.104719e-05 -1.350717e-03
4.056562e-03 5.300761e-04 -6.686656e+01 7.242665e-01 3.470271e+02 5.922045e+01 2.204008e-05 -4.544515e-06 -8.173159e-01 7.063647e-05 -1.327362e-03
4.088254e-03 5.390685e-04 -6.687917e+01 7.221471e-01 3.444411e+02 5.907298e+01 2.214223e-05 -4.487304e-06 -8.078270e-01 6.989123e-05 -1.304139e-03
4.119946e-03 5.481077e-04 -6.688655e+01 7.200275e-01 3.418716e+02 5.892571e+01 2.223471e-05 -4.428960e-06 -7.983078e-01 6.882790e-05 -1.281056e-03
4.151638e-03 5.571929e-04 -6.688881e+01 7.179077e-01 3.393185e+02 5.877867e+01 2.231766e-05 -4.369560e-06 -7.887640e-01 6.746239e-05 -1.258121e-03
4.183330e-03 5.663232e-04 -6.688604e+01 7.157879e-01 3.367821e+02 5.863184e+01 2.239122e-05 -4.309180e-06 -7.792011e-01 6.581015e-05 -1.235339e-03
4.215021e-03 5.754975e-04 -6.687833e+01 7.136683e-01 3.342625e+02 5.848526e+01 2.245555e-05 -4.247896e-06 -7.696243e-01 6.388608e-05 -1.212717e-03
