  radius   |   mu   |   psi   |   phi   |   pressure   |   rho   |  indepres |   res1   |   res2   |   res3   |   res4   |  
0.000000e+00 -3.278263e-35 0.000000e+00 9.058740e-01 6.458496e+02 7.284409e+01 0.000000e+00 0.000000e+00 0.000000e+00 0.000000e+00 0.000000e+00
2.535351e-04 1.632330e-07 -7.598559e+00 9.049107e-01 6.429036e+02 7.273316e+01 inf 6.234606e-04 -6.012838e+01 -3.074725e+00 -3.648923e-02
5.070702e-04 1.618647e-06 -1.505116e+01 9.020395e-01 6.365378e+02 7.249231e+01 -7.871825e-04 5.665176e-04 -2.708002e+01 -1.255571e+00 -6.497546e-02
7.606054e-04 5.592169e-06 -2.224386e+01 8.973117e-01 6.264839e+02 7.210862e+01 -8.189538e-04 4.783019e-04 -3.280092e+01 -7.586057e-01 -9.329344e-02
1.014140e-03 1.318536e-05 -2.906339e+01 8.908076e-01 6.130022e+02 7.158761e+01 -7.898951e-04 3.672497e-04 -3.948110e+01 -5.083962e-01 -1.170407e-01
1.267676e-03 2.532851e-05 -3.541475e+01 8.826338e-01 5.964918e+02 7.093905e+01 -7.111464e-04 2.433641e-04 -4.692726e+01 -3.537028e-01 -1.356268e-01
1.521211e-03 4.274894e-05 -4.122361e+01 8.729186e-01 5.774277e+02 7.017510e+01 -5.792371e-04 1.168327e-04 -5.417892e+01 -2.482683e-01 -1.487103e-01
1.774746e-03 6.595585e-05 -4.643763e+01 8.618060e-01 5.563223e+02 6.930949e+01 -3.956428e-04 -3.189024e-06 -6.049619e+01 -1.728686e-01 -1.563536e-01
2.028281e-03 9.524119e-05 -5.102623e+01 8.494507e-01 5.336933e+02 6.835670e+01 -1.690844e-04 -1.094547e-04 -6.537766e+01 -1.178331e-01 -1.589544e-01
2.281816e-03 1.306941e-04 -5.497901e+01 8.360127e-01 5.100378e+02 6.733145e+01 8.587617e-05 -1.970843e-04 -6.855614e+01 -7.754611e-02 -1.571489e-01
2.535351e-03 1.722252e-04 -5.830320e+01 8.216522e-01 4.858128e+02 6.624811e+01 3.516394e-04 -2.636144e-04 -6.997124e+01 -4.835143e-02 -1.517113e-01
2.788886e-03 2.195979e-04 -6.102054e+01 8.065258e-01 4.614222e+02 6.512034e+01 6.105565e-04 -3.087294e-04 -6.972426e+01 -2.765197e-02 -1.434634e-01
3.042421e-03 2.724614e-04 -6.316403e+01 7.907832e-01 4.372097e+02 6.396079e+01 8.473381e-04 -3.337971e-04 -6.802604e+01 -1.348806e-02 -1.332030e-01
3.295957e-03 3.303841e-04 -6.477471e+01 7.745647e-01 4.134574e+02 6.278089e+01 1.050533e-03 -3.413274e-04 -6.514750e+01 -4.325691e-03 -1.216550e-01
3.549492e-03 3.928837e-04 -6.589877e+01 7.579996e-01 3.903871e+02 6.159078e+01 1.213064e-03 -3.344548e-04 -6.137887e+01 1.058302e-03 -1.094423e-01
3.803027e-03 4.594541e-04 -6.658505e+01 7.412049e-01 3.681657e+02 6.039926e+01 1.332010e-03 -3.165028e-04 -5.699988e+01 3.644674e-03 -9.707378e-02
4.056562e-03 5.295862e-04 -6.688305e+01 7.242855e-01 3.469109e+02 5.921383e+01 1.407926e-03 -2.906615e-04 -5.226095e+01 4.217283e-03 -8.494543e-02
4.310097e-03 6.027852e-04 -6.684126e+01 7.073336e-01 3.266990e+02 5.804077e+01 1.443936e-03 -2.597784e-04 -4.737333e+01 3.396845e-03 -7.334891e-02
4.563632e-03 6.785822e-04 -6.650607e+01 6.904295e-01 3.075713e+02 5.688518e+01 1.444826e-03 -2.262474e-04 -4.250612e+01 1.668134e-03 -6.248502e-02
4.817167e-03 7.565426e-04 -6.592095e+01 6.736420e-01 2.895413e+02 5.575117e+01 1.416244e-03 -1.919756e-04 -3.778773e+01 -5.969754e-04 -5.247898e-02
5.070702e-03 8.362707e-04 -6.512591e+01 6.570295e-01 2.726007e+02 5.464195e+01 1.364067e-03 -1.584010e-04 -3.331007e+01 -3.119526e-03 -4.339550e-02
5.324238e-03 9.174115e-04 -6.415729e+01 6.406406e-01 2.567246e+02 5.355989e+01 1.293952e-03 -1.265433e-04 -2.913397e+01 -5.696087e-03 -3.525280e-02
5.577773e-03 9.996513e-04 -6.304766e+01 6.245152e-01 2.418764e+02 5.250674e+01 1.211049e-03 -9.706982e-05 -2.529489e+01 -8.183704e-03 -2.803475e-02
5.831308e-03 1.082716e-03 -6.182588e+01 6.086853e-01 2.280111e+02 5.148363e+01 1.119845e-03 -7.036421e-05 -2.180844e+01 -1.048702e-02 -2.170111e-02
6.084843e-03 1.166368e-03 -6.051731e+01 5.931761e-01 2.150782e+02 5.049123e+01 1.024108e-03 -4.659268e-05 -1.867520e+01 -1.254743e-02 -1.619577e-02
6.338378e-03 1.250405e-03 -5.914395e+01 5.780069e-01 2.030246e+02 4.952982e+01 9.268950e-04 -2.576170e-05 -1.588492e+01 -1.433406e-02 -1.145319e-02
6.591913e-03 1.334657e-03 -5.772477e+01 5.631918e-01 1.917961e+02 4.859935e+01 8.306066e-04 -7.766450e-06 -1.341993e+01 -1.583641e-02 -7.403325e-03
6.845448e-03 1.418978e-03 -5.627599e+01 5.487402e-01 1.813385e+02 4.769951e+01 7.370610e-04 7.570396e-06 -1.125781e+01 -1.705849e-02 -3.975267e-03
7.098983e-03 1.503252e-03 -5.481130e+01 5.346579e-01 1.715991e+02 4.682979e+01 6.475774e-04 2.046874e-05 -9.373578e+00 -1.801411e-02 -1.099774e-03
7.352519e-03 1.587379e-03 -5.334221e+01 5.209476e-01 1.625269e+02 4.598952e+01 5.630602e-04 3.116884e-05 -7.741178e+00 -1.872338e-02 1.288982e-03
7.606054e-03 1.671283e-03 -5.187828e+01 5.076090e-01 1.540734e+02 4.517794e+01 4.840774e-04 3.991537e-05 -6.334677e+00 -1.920991e-02 3.252340e-03
7.859589e-03 1.754901e-03 -5.042736e+01 4.946400e-01 1.461927e+02 4.439416e+01 4.109305e-04 4.694659e-05 -5.129045e+00 -1.949890e-02 4.846545e-03
8.113124e-03 1.838184e-03 -4.899583e+01 4.820363e-01 1.388420e+02 4.363726e+01 3.437151e-04 5.248735e-05 -4.100676e+00 -1.961565e-02 6.122512e-03
8.366659e-03 1.921097e-03 -4.758878e+01 4.697925e-01 1.319808e+02 4.290628e+01 2.823719e-04 5.674497e-05 -3.227714e+00 -1.958462e-02 7.125835e-03
8.620194e-03 2.003611e-03 -4.621024e+01 4.579019e-01 1.255721e+02 4.220023e+01 2.267287e-04 5.990725e-05 -2.490200e+00 -1.942875e-02 7.896977e-03
8.873729e-03 2.085710e-03 -4.486329e+01 4.463567e-01 1.195810e+02 4.151814e+01 1.765344e-04 6.214192e-05 -1.870130e+00 -1.916915e-02 8.471565e-03
9.127264e-03 2.167382e-03 -4.355022e+01 4.351487e-01 1.139757e+02 4.085902e+01 1.314858e-04 6.359709e-05 -1.351414e+00 -1.882484e-02 8.880755e-03
9.380800e-03 2.248621e-03 -4.227268e+01 4.242692e-01 1.087267e+02 4.022190e+01 9.124836e-05 6.440226e-05 -9.197925e-01 -1.841274e-02 9.151633e-03
9.634335e-03 2.329427e-03 -4.103174e+01 4.137089e-01 1.038068e+02 3.960583e+01 5.547266e-05 6.466982e-05 -5.627178e-01 -1.794771e-02 9.307613e-03
9.887870e-03 2.409803e-03 -3.982803e+01 4.034585e-01 9.919113e+01 3.900990e+01 2.380614e-05 6.449657e-05 -2.692124e-01 -1.744264e-02 9.368838e-03
1.014140e-02 2.489756e-03 -3.866180e+01 3.935085e-01 9.485677e+01 3.843321e+01 -4.098067e-06 6.396540e-05 -2.972465e-02 -1.690860e-02 9.352557e-03
1.039494e-02 2.569295e-03 -3.753298e+01 3.838495e-01 9.078267e+01 3.787490e+01 -2.857489e-05 6.314689e-05 1.640190e-01 -1.635500e-02 9.273478e-03
1.064848e-02 2.648431e-03 -3.644125e+01 3.744720e-01 8.694953e+01 3.733415e+01 -4.994316e-05 6.210084e-05 3.191555e-01 -1.578976e-02 9.144086e-03
1.090201e-02 2.727177e-03 -3.538610e+01 3.653666e-01 8.333965e+01 3.681016e+01 -6.850291e-05 6.087766e-05 4.418185e-01 -1.521949e-02 8.974940e-03
1.115555e-02 2.805546e-03 -3.436685e+01 3.565242e-01 7.993676e+01 3.630218e+01 -8.453397e-05 5.951964e-05 5.372625e-01 -1.464962e-02 8.774928e-03
1.140908e-02 2.883553e-03 -3.338270e+01 3.479357e-01 7.672597e+01 3.580948e+01 -9.829533e-05 5.806210e-05 6.099754e-01 -1.408460e-02 8.551506e-03
1.166262e-02 2.961214e-03 -3.243275e+01 3.395925e-01 7.369358e+01 3.533136e+01 -1.100252e-04 5.653439e-05 6.637789e-01 -1.352797e-02 8.310895e-03
1.191615e-02 3.038544e-03 -3.151605e+01 3.314858e-01 7.082702e+01 3.486718e+01 -1.199416e-04 5.496076e-05 7.019198e-01 -1.298257e-02 8.058264e-03
1.216969e-02 3.115560e-03 -3.063158e+01 3.236075e-01 6.811475e+01 3.441631e+01 -1.282432e-04 5.336116e-05 7.271491e-01 -1.245056e-02 7.797883e-03
1.242322e-02 3.192277e-03 -2.977831e+01 3.159495e-01 6.554615e+01 3.397814e+01 -1.351100e-04 5.175185e-05 7.417923e-01 -1.193361e-02 7.533262e-03
1.267676e-02 3.268713e-03 -2.895516e+01 3.085040e-01 6.311145e+01 3.355212e+01 -1.407052e-04 5.014603e-05 7.478103e-01 -1.143291e-02 7.267262e-03
1.293029e-02 3.344882e-03 -2.816109e+01 3.012635e-01 6.080167e+01 3.313770e+01 -1.451758e-04 4.855429e-05 7.468530e-01 -1.094928e-02 7.002200e-03
1.318383e-02 3.420800e-03 -2.739502e+01 2.942208e-01 5.860853e+01 3.273438e+01 -1.486540e-04 4.698506e-05 7.403049e-01 -1.048323e-02 6.739934e-03
1.343736e-02 3.496483e-03 -2.665591e+01 2.873689e-01 5.652440e+01 3.234168e+01 -1.512586e-04 4.544492e-05 7.293252e-01 -1.003504e-02 6.481933e-03
1.369090e-02 3.571947e-03 -2.594273e+01 2.807011e-01 5.454225e+01 3.195912e+01 -1.530961e-04 4.393896e-05 7.148811e-01 -9.604745e-03 6.229347e-03
1.394443e-02 3.647205e-03 -2.525447e+01 2.742110e-01 5.265557e+01 3.158629e+01 -1.542615e-04 4.247099e-05 6.977782e-01 -9.192239e-03 5.983053e-03
1.419797e-02 3.722273e-03 -2.459014e+01 2.678923e-01 5.085836e+01 3.122276e+01 -1.548398e-04 4.104380e-05 6.786844e-01 -8.797277e-03 5.743706e-03
1.445150e-02 3.797164e-03 -2.394879e+01 2.617391e-01 4.914507e+01 3.086814e+01 -1.549069e-04 3.965929e-05 6.581518e-01 -8.419507e-03 5.511774e-03
1.470504e-02 3.871891e-03 -2.332948e+01 2.557458e-01 4.751056e+01 3.052207e+01 -1.545302e-04 3.831867e-05 6.366351e-01 -8.058503e-03 5.287573e-03
1.495857e-02 3.946469e-03 -2.273132e+01 2.499067e-01 4.595008e+01 3.018417e+01 -1.537696e-04 3.702259e-05 6.145066e-01 -7.713774e-03 5.071294e-03
1.521211e-02 4.020910e-03 -2.215345e+01 2.442168e-01 4.445921e+01 2.985413e+01 -1.526785e-04 3.577120e-05 5.920693e-01 -7.384789e-03 4.863025e-03
1.546564e-02 4.095225e-03 -2.159503e+01 2.386709e-01 4.303385e+01 2.953162e+01 -1.513041e-04 3.456430e-05 5.695687e-01 -7.070985e-03 4.662771e-03
1.571918e-02 4.169427e-03 -2.105526e+01 2.332642e-01 4.167021e+01 2.921634e+01 -1.496884e-04 3.340138e-05 5.472015e-01 -6.771784e-03 4.470471e-03
1.597271e-02 4.243527e-03 -2.053337e+01 2.279922e-01 4.036475e+01 2.890799e+01 -1.478682e-04 3.228171e-05 5.251241e-01 -6.486595e-03 4.286012e-03
1.622625e-02 4.317536e-03 -2.002863e+01 2.228502e-01 3.911419e+01 2.860632e+01 -1.458765e-04 3.120434e-05 5.034590e-01 -6.214826e-03 4.109239e-03
1.647978e-02 4.391465e-03 -1.954032e+01 2.178342e-01 3.791546e+01 2.831105e+01 -1.437422e-04 3.016822e-05 4.823007e-01 -5.955892e-03 3.939965e-03
1.673332e-02 4.465323e-03 -1.906778e+01 2.129399e-01 3.676572e+01 2.802194e+01 -1.414906e-04 2.917217e-05 4.617204e-01 -5.709211e-03 3.777980e-03
1.698685e-02 4.539121e-03 -1.861034e+01 2.081635e-01 3.566230e+01 2.773876e+01 -1.391443e-04 2.821496e-05 4.417702e-01 -5.474219e-03 3.623057e-03
1.724039e-02 4.612868e-03 -1.816740e+01 2.035013e-01 3.460272e+01 2.746127e+01 -1.367230e-04 2.729529e-05 4.224864e-01 -5.250361e-03 3.474955e-03
1.749392e-02 4.686573e-03 -1.773836e+01 1.989496e-01 3.358467e+01 2.718927e+01 -1.342439e-04 2.641185e-05 4.038922e-01 -5.037105e-03 3.333429e-03
1.774746e-02 4.760243e-03 -1.732265e+01 1.945050e-01 3.260598e+01 2.692256e+01 -1.317223e-04 2.556331e-05 3.860005e-01 -4.833932e-03 3.198227e-03
1.800099e-02 4.833889e-03 -1.691973e+01 1.901642e-01 3.166462e+01 2.666093e+01 -1.291714e-04 2.474832e-05 3.688153e-01 -4.640345e-03 3.069097e-03
1.825453e-02 4.907516e-03 -1.652910e+01 1.859240e-01 3.075870e+01 2.640421e+01 -1.266027e-04 2.396558e-05 3.523341e-01 -4.455866e-03 2.945788e-03
1.850806e-02 4.981134e-03 -1.615024e+01 1.817813e-01 2.988642e+01 2.615222e+01 -1.240264e-04 2.321379e-05 3.365489e-01 -4.280039e-03 2.828054e-03
1.876160e-02 5.054749e-03 -1.578270e+01 1.777332e-01 2.904614e+01 2.590478e+01 -1.214510e-04 2.249167e-05 3.214472e-01 -4.112426e-03 2.715652e-03
1.901513e-02 5.128368e-03 -1.542601e+01 1.737770e-01 2.823627e+01 2.566175e+01 -1.188841e-04 2.179797e-05 3.070133e-01 -3.952610e-03 2.608344e-03
1.926867e-02 5.201997e-03 -1.507977e+01 1.699098e-01 2.745536e+01 2.542297e+01 -1.163323e-04 2.113150e-05 2.932291e-01 -3.800193e-03 2.505901e-03
1.952220e-02 5.275643e-03 -1.474354e+01 1.661292e-01 2.670201e+01 2.518828e+01 -1.138010e-04 2.049107e-05 2.800745e-01 -3.654798e-03 2.408099e-03
1.977574e-02 5.349313e-03 -1.441695e+01 1.624326e-01 2.597493e+01 2.495755e+01 -1.112951e-04 1.987557e-05 2.675281e-01 -3.516064e-03 2.314723e-03
2.002927e-02 5.423010e-03 -1.409962e+01 1.588176e-01 2.527291e+01 2.473065e+01 -1.088185e-04 1.928389e-05 2.555678e-01 -3.383651e-03 2.225566e-03
2.028281e-02 5.496743e-03 -1.379119e+01 1.552820e-01 2.459477e+01 2.450745e+01 -1.063745e-04 1.871499e-05 2.441709e-01 -3.257235e-03 2.140427e-03
2.053635e-02 5.570514e-03 -1.349132e+01 1.518234e-01 2.393945e+01 2.428782e+01 -1.039661e-04 1.816786e-05 2.333146e-01 -3.136508e-03 2.059117e-03
2.078988e-02 5.644330e-03 -1.319968e+01 1.484399e-01 2.330591e+01 2.407165e+01 -1.015954e-04 1.764153e-05 2.229759e-01 -3.021179e-03 1.981451e-03
2.104342e-02 5.718195e-03 -1.291598e+01 1.451293e-01 2.269320e+01 2.385883e+01 -9.926444e-05 1.713508e-05 2.131324e-01 -2.910973e-03 1.907255e-03
2.129695e-02 5.792113e-03 -1.263990e+01 1.418896e-01 2.210039e+01 2.364924e+01 -9.697464e-05 1.664761e-05 2.037618e-01 -2.805628e-03 1.836362e-03
2.155049e-02 5.866089e-03 -1.237117e+01 1.387190e-01 2.152663e+01 2.344279e+01 -9.472714e-05 1.617827e-05 1.948424e-01 -2.704898e-03 1.768612e-03
2.180402e-02 5.940127e-03 -1.210951e+01 1.356157e-01 2.097110e+01 2.323937e+01 -9.252281e-05 1.572626e-05 1.863532e-01 -2.608549e-03 1.703853e-03
2.205756e-02 6.014231e-03 -1.185467e+01 1.325778e-01 2.043304e+01 2.303889e+01 -9.036223e-05 1.529079e-05 1.782737e-01 -2.516358e-03 1.641941e-03
2.231109e-02 6.088404e-03 -1.160639e+01 1.296037e-01 1.991170e+01 2.284125e+01 -8.824579e-05 1.487113e-05 1.705841e-01 -2.428117e-03 1.582737e-03
2.256463e-02 6.162650e-03 -1.136445e+01 1.266917e-01 1.940640e+01 2.264638e+01 -8.617364e-05 1.446657e-05 1.632655e-01 -2.343628e-03 1.526112e-03
2.281816e-02 6.236972e-03 -1.112861e+01 1.238403e-01 1.891649e+01 2.245419e+01 -8.414578e-05 1.407644e-05 1.562996e-01 -2.262704e-03 1.471939e-03
2.307170e-02 6.311373e-03 -1.089866e+01 1.210480e-01 1.844133e+01 2.226459e+01 -8.216208e-05 1.370008e-05 1.496688e-01 -2.185166e-03 1.420102e-03
2.332523e-02 6.385856e-03 -1.067439e+01 1.183132e-01 1.798036e+01 2.207750e+01 -8.022226e-05 1.333690e-05 1.433565e-01 -2.110848e-03 1.370488e-03
2.357877e-02 6.460424e-03 -1.045560e+01 1.156346e-01 1.753299e+01 2.189286e+01 -7.832593e-05 1.298629e-05 1.373466e-01 -2.039590e-03 1.322989e-03
2.383230e-02 6.535080e-03 -1.024210e+01 1.130108e-01 1.709871e+01 2.171059e+01 -7.647261e-05 1.264771e-05 1.316238e-01 -1.971244e-03 1.277505e-03
2.408584e-02 6.609825e-03 -1.003371e+01 1.104405e-01 1.667700e+01 2.153062e+01 -7.466176e-05 1.232063e-05 1.261737e-01 -1.905666e-03 1.233940e-03
2.433937e-02 6.684662e-03 -9.830262e+00 1.079224e-01 1.626739e+01 2.135288e+01 -7.289274e-05 1.200453e-05 1.209824e-01 -1.842723e-03 1.192201e-03
2.459291e-02 6.759593e-03 -9.631579e+00 1.054553e-01 1.586941e+01 2.117731e+01 -7.116488e-05 1.169893e-05 1.160366e-01 -1.782287e-03 1.152204e-03
2.484644e-02 6.834620e-03 -9.437506e+00 1.030379e-01 1.548264e+01 2.100385e+01 -6.947745e-05 1.140338e-05 1.113240e-01 -1.724238e-03 1.113864e-03
2.509998e-02 6.909745e-03 -9.247887e+00 1.006692e-01 1.510666e+01 2.083243e+01 -6.782970e-05 1.111743e-05 1.068326e-01 -1.668462e-03 1.077105e-03
2.535351e-02 6.984970e-03 -9.062577e+00 9.834807e-02 1.474107e+01 2.066301e+01 -6.622082e-05 1.084066e-05 1.025512e-01 -1.614851e-03 1.041853e-03
2.560705e-02 7.060295e-03 -8.881435e+00 9.607335e-02 1.438549e+01 2.049551e+01 -6.465000e-05 1.057269e-05 9.846898e-02 -1.563303e-03 1.008036e-03
2.586058e-02 7.135723e-03 -8.704324e+00 9.384405e-02 1.403958e+01 2.032990e+01 -6.311641e-05 1.031311e-05 9.457589e-02 -1.513721e-03 9.755894e-04
2.611412e-02 7.211254e-03 -8.531116e+00 9.165916e-02 1.370298e+01 2.016611e+01 -6.161921e-05 1.006158e-05 9.086228e-02 -1.466013e-03 9.444487e-04
2.636765e-02 7.286890e-03 -8.361686e+00 8.951770e-02 1.337537e+01 2.000410e+01 -6.015753e-05 9.817748e-06 8.731906e-02 -1.420093e-03 9.145543e-04
2.662119e-02 7.362632e-03 -8.195914e+00 8.741873e-02 1.305643e+01 1.984382e+01 -5.873052e-05 9.581278e-06 8.393758e-02 -1.375878e-03 8.858491e-04
2.687472e-02 7.438480e-03 -8.033685e+00 8.536134e-02 1.274587e+01 1.968523e+01 -5.733732e-05 9.351857e-06 8.070968e-02 -1.333290e-03 8.582791e-04
2.712826e-02 7.514436e-03 -7.874890e+00 8.334465e-02 1.244341e+01 1.952826e+01 -5.597707e-05 9.129183e-06 7.762760e-02 -1.292254e-03 8.317929e-04
2.738179e-02 7.590499e-03 -7.719422e+00 8.136780e-02 1.214876e+01 1.937289e+01 -5.464892e-05 8.912968e-06 7.468401e-02 -1.252701e-03 8.063418e-04
2.763533e-02 7.666671e-03 -7.567179e+00 7.942995e-02 1.186167e+01 1.921907e+01 -5.335203e-05 8.702938e-06 7.187197e-02 -1.214563e-03 7.818794e-04
2.788886e-02 7.742952e-03 -7.418063e+00 7.753031e-02 1.158188e+01 1.906676e+01 -5.208554e-05 8.498829e-06 6.918491e-02 -1.177777e-03 7.583618e-04
2.814240e-02 7.819342e-03 -7.271981e+00 7.566809e-02 1.130917e+01 1.891592e+01 -5.084865e-05 8.300390e-06 6.661660e-02 -1.142284e-03 7.357472e-04
2.839593e-02 7.895842e-03 -7.128842e+00 7.384253e-02 1.104330e+01 1.876651e+01 -4.964052e-05 8.107381e-06 6.416114e-02 -1.108025e-03 7.139959e-04
2.864947e-02 7.972451e-03 -6.988559e+00 7.205290e-02 1.078404e+01 1.861849e+01 -4.846035e-05 7.919571e-06 6.181296e-02 -1.074946e-03 6.930702e-04
2.890300e-02 8.049169e-03 -6.851048e+00 7.029849e-02 1.053120e+01 1.847182e+01 -4.730736e-05 7.736741e-06 5.956678e-02 -1.042997e-03 6.729341e-04
2.915654e-02 8.125997e-03 -6.716229e+00 6.857860e-02 1.028456e+01 1.832648e+01 -4.618076e-05 7.558679e-06 5.741757e-02 -1.012127e-03 6.535535e-04
2.941007e-02 8.202933e-03 -6.584025e+00 6.689256e-02 1.004394e+01 1.818243e+01 -4.507980e-05 7.385185e-06 5.536062e-02 -9.822904e-04 6.348962e-04
2.966361e-02 8.279979e-03 -6.454359e+00 6.523971e-02 9.809143e+00 1.803963e+01 -4.400371e-05 7.216064e-06 5.339143e-02 -9.534425e-04 6.169311e-04
2.991714e-02 8.357132e-03 -6.327162e+00 6.361943e-02 9.579997e+00 1.789805e+01 -4.295178e-05 7.051131e-06 5.150574e-02 -9.255411e-04 5.996290e-04
3.017068e-02 8.434394e-03 -6.202363e+00 6.203110e-02 9.356329e+00 1.775766e+01 -4.192328e-05 6.890209e-06 4.969953e-02 -8.985459e-04 5.829619e-04
3.042421e-02 8.511762e-03 -6.079896e+00 6.047410e-02 9.137975e+00 1.761843e+01 -4.091751e-05 6.733126e-06 4.796898e-02 -8.724188e-04 5.669033e-04
3.067775e-02 8.589237e-03 -5.959696e+00 5.894787e-02 8.924775e+00 1.748033e+01 -3.993378e-05 6.579720e-06 4.631048e-02 -8.471231e-04 5.514278e-04
3.093129e-02 8.666817e-03 -5.841703e+00 5.745184e-02 8.716579e+00 1.734333e+01 -3.897143e-05 6.429833e-06 4.472060e-02 -8.226243e-04 5.365114e-04
3.118482e-02 8.744502e-03 -5.725855e+00 5.598545e-02 8.513239e+00 1.720741e+01 -3.802979e-05 6.283314e-06 4.319609e-02 -7.988891e-04 5.221312e-04
3.143836e-02 8.822291e-03 -5.612096e+00 5.454816e-02 8.314615e+00 1.707253e+01 -3.710824e-05 6.140017e-06 4.173386e-02 -7.758860e-04 5.082652e-04
3.169189e-02 8.900182e-03 -5.500370e+00 5.313946e-02 8.120572e+00 1.693867e+01 -3.620613e-05 5.999803e-06 4.033100e-02 -7.535849e-04 4.948927e-04
3.194543e-02 8.978174e-03 -5.390623e+00 5.175884e-02 7.930978e+00 1.680581e+01 -3.532288e-05 5.862538e-06 3.898473e-02 -7.319572e-04 4.819937e-04
3.219896e-02 9.056267e-03 -5.282804e+00 5.040579e-02 7.745709e+00 1.667391e+01 -3.445787e-05 5.728093e-06 3.769243e-02 -7.109753e-04 4.695495e-04
3.245250e-02 9.134458e-03 -5.176864e+00 4.907985e-02 7.564643e+00 1.654296e+01 -3.361053e-05 5.596341e-06 3.645160e-02 -6.906132e-04 4.575419e-04
3.270603e-02 9.212746e-03 -5.072754e+00 4.778053e-02 7.387664e+00 1.641293e+01 -3.278030e-05 5.467164e-06 3.525988e-02 -6.708459e-04 4.459538e-04
3.295957e-02 9.291129e-03 -4.970427e+00 4.650738e-02 7.214659e+00 1.628380e+01 -3.196662e-05 5.340445e-06 3.411501e-02 -6.516495e-04 4.347687e-04
3.321310e-02 9.369606e-03 -4.869840e+00 4.525995e-02 7.045520e+00 1.615554e+01 -3.116896e-05 5.216072e-06 3.301487e-02 -6.330014e-04 4.239710e-04
3.346664e-02 9.448176e-03 -4.770948e+00 4.403781e-02 6.880144e+00 1.602814e+01 -3.038678e-05 5.093938e-06 3.195742e-02 -6.148796e-04 4.135458e-04
3.372017e-02 9.526835e-03 -4.673711e+00 4.284054e-02 6.718428e+00 1.590156e+01 -2.961958e-05 4.973936e-06 3.094076e-02 -5.972634e-04 4.034787e-04
3.397371e-02 9.605583e-03 -4.578088e+00 4.166771e-02 6.560275e+00 1.577579e+01 -2.886687e-05 4.855967e-06 2.996304e-02 -5.801329e-04 3.937563e-04
