  radius   |   mu   |   psi   |   phi   |   pressure   |   rho   |  indepres |   res1   |   res2   |   res3   |   res4   |  
0.000000e+00 3.450678e-36 0.000000e+00 9.058913e-01 6.447148e+02 7.280140e+01 0.000000e+00 0.000000e+00 0.000000e+00 0.000000e+00 0.000000e+00
1.267676e-04 2.041843e-08 -3.800366e+00 9.056505e-01 6.439786e+02 7.277368e+01 inf 1.597853e-04 -1.466609e+01 -1.549291e+00 -4.591527e-03
2.535351e-04 2.037535e-07 -7.582366e+00 9.049290e-01 6.423713e+02 7.271309e+01 -1.971586e-04 1.560953e-04 -5.716583e+00 -6.545102e-01 -8.348861e-03
3.803027e-04 7.108015e-07 -1.133097e+01 9.037302e-01 6.397872e+02 7.261545e+01 -2.085739e-04 1.500695e-04 -6.069446e+00 -4.179721e-01 -1.237911e-02
5.070702e-04 1.698223e-06 -1.503006e+01 9.020593e-01 6.362313e+02 7.248067e+01 -2.115514e-04 1.418586e-04 -6.483980e+00 -3.029630e-01 -1.623184e-02
6.338378e-04 3.316618e-06 -1.866422e+01 8.999236e-01 6.317282e+02 7.230926e+01 -2.119231e-04 1.316687e-04 -7.102113e+00 -2.335581e-01 -1.988434e-02
7.606054e-04 5.708739e-06 -2.221884e+01 8.973323e-01 6.263129e+02 7.210205e+01 -2.103515e-04 1.197510e-04 -7.863473e+00 -1.864760e-01 -2.329575e-02
8.873729e-04 9.007903e-06 -2.568028e+01 8.942963e-01 6.200284e+02 7.186009e+01 -2.066853e-04 1.063920e-04 -8.725657e+00 -1.520989e-01 -2.643085e-02
1.014140e-03 1.333661e-05 -2.903600e+01 8.908282e-01 6.129244e+02 7.158458e+01 -2.005862e-04 9.190273e-05 -9.654190e+00 -1.257174e-01 -2.926124e-02
1.140908e-03 1.880542e-05 -3.227467e+01 8.869421e-01 6.050556e+02 7.127692e+01 -1.917059e-04 7.660752e-05 -1.061814e+01 -1.047506e-01 -3.176561e-02
1.267676e-03 2.551207e-05 -3.538628e+01 8.826535e-01 5.964810e+02 7.093862e+01 -1.797612e-04 6.083315e-05 -1.158899e+01 -8.766426e-02 -3.392977e-02
1.394443e-03 3.354089e-05 -3.836217e+01 8.779790e-01 5.872628e+02 7.057129e+01 -1.645734e-04 4.489860e-05 -1.254062e+01 -7.348732e-02 -3.574641e-02
1.521211e-03 4.296244e-05 -4.119508e+01 8.729364e-01 5.774653e+02 7.017663e+01 -1.460893e-04 2.910574e-05 -1.344966e+01 -6.157296e-02 -3.721477e-02
1.647978e-03 5.383346e-05 -4.387913e+01 8.675440e-01 5.671539e+02 6.975642e+01 -1.243880e-04 1.373165e-05 -1.429586e+01 -5.147130e-02 -3.834008e-02
1.774746e-03 6.619697e-05 -4.640981e+01 8.618212e-01 5.563941e+02 6.931247e+01 -9.967749e-05 -9.776421e-07 -1.506238e+01 -4.285729e-02 -3.913283e-02
1.901513e-03 8.008270e-05 -4.878397e+01 8.557874e-01 5.452509e+02 6.884663e+01 -7.228164e-05 -1.481152e-05 -1.573594e+01 -3.548785e-02 -3.960812e-02
2.028281e-03 9.550759e-05 -5.099969e+01 8.494628e-01 5.337880e+02 6.836075e+01 -4.262167e-05 -2.759751e-05 -1.630685e+01 -2.917546e-02 -3.978473e-02
2.155049e-03 1.124766e-04 -5.305627e+01 8.428673e-01 5.220669e+02 6.785668e+01 -1.119283e-05 -3.920226e-05 -1.676883e+01 -2.377125e-02 -3.968440e-02
2.281816e-03 1.309833e-04 -5.495412e+01 8.360212e-01 5.101466e+02 6.733624e+01 2.146074e-05 -4.953112e-05 -1.711884e+01 -1.915408e-02 -3.933099e-02
2.408584e-03 1.510113e-04 -5.669464e+01 8.289445e-01 4.980830e+02 6.680122e+01 5.477138e-05 -5.852634e-05 -1.735673e+01 -1.522307e-02 -3.874972e-02
2.535351e-03 1.725348e-04 -5.828016e+01 8.216570e-01 4.859287e+02 6.625338e+01 8.817172e-05 -6.616431e-05 -1.748486e+01 -1.189267e-02 -3.796652e-02
2.662119e-03 1.955198e-04 -5.971382e+01 8.141781e-01 4.737326e+02 6.569439e+01 1.211158e-04 -7.245201e-05 -1.750768e+01 -9.089154e-03 -3.700739e-02
2.788886e-03 2.199252e-04 -6.099944e+01 8.065268e-01 4.615399e+02 6.512588e+01 1.530967e-04 -7.742297e-05 -1.743135e+01 -6.748195e-03 -3.589793e-02
2.915654e-03 2.457039e-04 -6.214148e+01 7.987217e-01 4.493917e+02 6.454940e+01 1.836602e-04 -8.113286e-05 -1.726333e+01 -4.813108e-03 -3.466284e-02
3.042421e-03 2.728037e-04 -6.314486e+01 7.907805e-01 4.373254e+02 6.396643e+01 2.124142e-04 -8.365522e-05 -1.701197e+01 -3.233596e-03 -3.332565e-02
3.169189e-03 3.011683e-04 -6.401494e+01 7.827207e-01 4.253744e+02 6.337836e+01 2.390345e-04 -8.507708e-05 -1.668620e+01 -1.964801e-03 -3.190843e-02
3.295957e-03 3.307384e-04 -6.475739e+01 7.745586e-01 4.135683e+02 6.278650e+01 2.632672e-04 -8.549502e-05 -1.629521e+01 -9.665931e-04 -3.043160e-02
3.422724e-03 3.614524e-04 -6.537811e+01 7.663101e-01 4.019331e+02 6.219209e+01 2.849273e-04 -8.501149e-05 -1.584823e+01 -2.030153e-04 -2.891382e-02
3.549492e-03 3.932472e-04 -6.588318e+01 7.579903e-01 3.904914e+02 6.159626e+01 3.038963e-04 -8.373158e-05 -1.535427e+01 3.581629e-04 -2.737195e-02
3.676259e-03 4.260590e-04 -6.627876e+01 7.496133e-01 3.792624e+02 6.100009e+01 3.201165e-04 -8.176028e-05 -1.482201e+01 7.458117e-04 -2.582100e-02
3.803027e-03 4.598238e-04 -6.657105e+01 7.411928e-01 3.682624e+02 6.040455e+01 3.335848e-04 -7.920016e-05 -1.425962e+01 9.857521e-04 -2.427421e-02
3.929794e-03 4.944781e-04 -6.676625e+01 7.327414e-01 3.575045e+02 5.981054e+01 3.443457e-04 -7.614956e-05 -1.367470e+01 1.101027e-03 -2.274308e-02
4.056562e-03 5.299593e-04 -6.687047e+01 7.242710e-01 3.469995e+02 5.921888e+01 3.524841e-04 -7.270121e-05 -1.307425e+01 1.112141e-03 -2.123749e-02
4.183330e-03 5.662062e-04 -6.688975e+01 7.157928e-01 3.367558e+02 5.863031e+01 3.581173e-04 -6.894117e-05 -1.246456e+01 1.037280e-03 -1.976573e-02
4.310097e-03 6.031590e-04 -6.682996e+01 7.073171e-01 3.267794e+02 5.804553e+01 3.613882e-04 -6.494821e-05 -1.185130e+01 8.925090e-04 -1.833471e-02
4.436865e-03 6.407602e-04 -6.669683e+01 6.988537e-01 3.170746e+02 5.746512e+01 3.624590e-04 -6.079345e-05 -1.123942e+01 6.919591e-04 -1.695000e-02
4.563632e-03 6.789542e-04 -6.649590e+01 6.904114e-01 3.076438e+02 5.688965e+01 3.615045e-04 -5.654025e-05 -1.063326e+01 4.479994e-04 -1.561602e-02
4.690400e-03 7.176879e-04 -6.623251e+01 6.819986e-01 2.984878e+02 5.631958e+01 3.587074e-04 -5.224429e-05 -1.003653e+01 1.713979e-04 -1.433609e-02
4.817167e-03 7.569106e-04 -6.591178e+01 6.736228e-01 2.896062e+02 5.575534e+01 3.542532e-04 -4.795385e-05 -9.452389e+00 -1.285277e-04 -1.311261e-02
4.943935e-03 7.965740e-04 -6.553859e+01 6.652910e-01 2.809974e+02 5.519731e+01 3.483269e-04 -4.371015e-05 -8.883430e+00 -4.437686e-04 -1.194715e-02
5.070702e-03 8.366325e-04 -6.511762e+01 6.570095e-01 2.726586e+02 5.464582e+01 3.411095e-04 -3.954785e-05 -8.331774e+00 -7.674943e-04 -1.084055e-02
5.197470e-03 8.770431e-04 -6.465328e+01 6.487841e-01 2.645863e+02 5.410112e+01 3.327757e-04 -3.549554e-05 -7.799096e+00 -1.093930e-03 -9.793024e-03
5.324238e-03 9.177654e-04 -6.414977e+01 6.406201e-01 2.567761e+02 5.356347e+01 3.234918e-04 -3.157627e-05 -7.286673e+00 -1.418241e-03 -8.804257e-03
5.451005e-03 9.587614e-04 -6.361105e+01 6.325221e-01 2.492232e+02 5.303306e+01 3.134144e-04 -2.780815e-05 -6.795432e+00 -1.736432e-03 -7.873488e-03
5.577773e-03 9.999958e-04 -6.304083e+01 6.244944e-01 2.419221e+02 5.251004e+01 3.026896e-04 -2.420487e-05 -6.325985e+00 -2.045246e-03 -6.999581e-03
5.704540e-03 1.041435e-03 -6.244261e+01 6.165408e-01 2.348669e+02 5.199455e+01 2.914522e-04 -2.077621e-05 -5.878676e+00 -2.342078e-03 -6.181096e-03
5.831308e-03 1.083050e-03 -6.181967e+01 6.086646e-01 2.280515e+02 5.148667e+01 2.798255e-04 -1.752860e-05 -5.453614e+00 -2.624893e-03 -5.416351e-03
5.958075e-03 1.124810e-03 -6.117506e+01 6.008687e-01 2.214694e+02 5.098649e+01 2.679216e-04 -1.446556e-05 -5.050708e+00 -2.892151e-03 -4.703471e-03
6.084843e-03 1.166690e-03 -6.051164e+01 5.931558e-01 2.151140e+02 5.049404e+01 2.558411e-04 -1.158814e-05 -4.669701e+00 -3.142742e-03 -4.040440e-03
6.211611e-03 1.208666e-03 -5.983205e+01 5.855279e-01 2.089786e+02 5.000934e+01 2.436740e-04 -8.895308e-06 -4.310192e+00 -3.375926e-03 -3.425139e-03
6.338378e-03 1.250715e-03 -5.913877e+01 5.779871e-01 2.030563e+02 4.953240e+01 2.315000e-04 -6.384347e-06 -3.971668e+00 -3.591275e-03 -2.855384e-03
6.465146e-03 1.292817e-03 -5.843406e+01 5.705349e-01 1.973405e+02 4.906320e+01 2.193887e-04 -4.051128e-06 -3.653523e+00 -3.788627e-03 -2.328951e-03
6.591913e-03 1.334953e-03 -5.772004e+01 5.631726e-01 1.918242e+02 4.860172e+01 2.074010e-04 -1.890424e-06 -3.355077e+00 -3.968043e-03 -1.843609e-03
6.718681e-03 1.377107e-03 -5.699865e+01 5.559013e-01 1.865007e+02 4.814790e+01 1.955890e-04 1.038518e-07 -3.075596e+00 -4.129769e-03 -1.397135e-03
6.845448e-03 1.419262e-03 -5.627166e+01 5.487218e-01 1.813634e+02 4.770169e+01 1.839972e-04 1.938429e-06 -2.814307e+00 -4.274200e-03 -9.873347e-04
6.972216e-03 1.461404e-03 -5.554073e+01 5.416347e-01 1.764057e+02 4.726301e+01 1.726629e-04 3.620496e-06 -2.570410e+00 -4.401851e-03 -6.120591e-04
7.098983e-03 1.503521e-03 -5.480735e+01 5.346405e-01 1.716212e+02 4.683180e+01 1.616170e-04 5.157537e-06 -2.343089e+00 -4.513332e-03 -2.692127e-04
7.225751e-03 1.545602e-03 -5.407289e+01 5.277392e-01 1.670035e+02 4.640795e+01 1.508844e-04 6.557204e-06 -2.131523e+00 -4.609327e-03 4.323499e-05
7.352519e-03 1.587636e-03 -5.333860e+01 5.209311e-01 1.625465e+02 4.599138e+01 1.404850e-04 7.827204e-06 -1.934893e+00 -4.690570e-03 3.272427e-04
7.479286e-03 1.629613e-03 -5.260563e+01 5.142159e-01 1.582442e+02 4.558198e+01 1.304338e-04 8.975207e-06 -1.752391e+00 -4.757833e-03 5.846924e-04
7.606054e-03 1.671526e-03 -5.187499e+01 5.075935e-01 1.540909e+02 4.517965e+01 1.207418e-04 1.000877e-05 -1.583221e+00 -4.811909e-03 8.173851e-04
7.732821e-03 1.713367e-03 -5.114762e+01 5.010636e-01 1.500807e+02 4.478427e+01 1.114163e-04 1.093527e-05 -1.426608e+00 -4.853601e-03 1.027039e-03
7.859589e-03 1.755130e-03 -5.042436e+01 4.946256e-01 1.462084e+02 4.439574e+01 1.024616e-04 1.176189e-05 -1.281800e+00 -4.883713e-03 1.215289e-03
7.986356e-03 1.796810e-03 -4.970596e+01 4.882789e-01 1.424685e+02 4.401393e+01 9.387898e-05 1.249554e-05 -1.148071e+00 -4.903041e-03 1.383683e-03
8.113124e-03 1.838400e-03 -4.899310e+01 4.820230e-01 1.388559e+02 4.363872e+01 8.566740e-05 1.314285e-05 -1.024721e+00 -4.912365e-03 1.533689e-03
8.239892e-03 1.879898e-03 -4.828637e+01 4.758571e-01 1.353658e+02 4.327000e+01 7.782382e-05 1.371015e-05 -9.110806e-01 -4.912444e-03 1.666690e-03
8.366659e-03 1.921300e-03 -4.758630e+01 4.697803e-01 1.319934e+02 4.290764e+01 7.034342e-05 1.420347e-05 -8.065098e-01 -4.904016e-03 1.783988e-03
8.493427e-03 1.962602e-03 -4.689338e+01 4.637918e-01 1.287340e+02 4.255151e+01 6.321995e-05 1.462853e-05 -7.103993e-01 -4.887788e-03 1.886809e-03
8.620194e-03 2.003802e-03 -4.620800e+01 4.578907e-01 1.255834e+02 4.220150e+01 5.644592e-05 1.499072e-05 -6.221708e-01 -4.864439e-03 1.976302e-03
8.746962e-03 2.044898e-03 -4.553052e+01 4.520760e-01 1.225371e+02 4.185748e+01 5.001286e-05 1.529512e-05 -5.412763e-01 -4.834614e-03 2.053542e-03
8.873729e-03 2.085889e-03 -4.486126e+01 4.463466e-01 1.195912e+02 4.151932e+01 4.391151e-05 1.554650e-05 -4.671979e-01 -4.798927e-03 2.119535e-03
9.000497e-03 2.126772e-03 -4.420048e+01 4.407015e-01 1.167417e+02 4.118691e+01 3.813199e-05 1.574934e-05 -3.994474e-01 -4.757959e-03 2.175220e-03
9.127264e-03 2.167549e-03 -4.354840e+01 4.351397e-01 1.139849e+02 4.086012e+01 3.266392e-05 1.590781e-05 -3.375652e-01 -4.712255e-03 2.221473e-03
9.254032e-03 2.208217e-03 -4.290520e+01 4.296599e-01 1.113172e+02 4.053884e+01 2.749663e-05 1.602581e-05 -2.811195e-01 -4.662330e-03 2.259108e-03
9.380800e-03 2.248777e-03 -4.227104e+01 4.242611e-01 1.087351e+02 4.022293e+01 2.261918e-05 1.610698e-05 -2.297055e-01 -4.608663e-03 2.288883e-03
9.507567e-03 2.289228e-03 -4.164604e+01 4.189421e-01 1.062352e+02 3.991229e+01 1.802055e-05 1.615469e-05 -1.829439e-01 -4.551705e-03 2.311501e-03
9.634335e-03 2.329572e-03 -4.103028e+01 4.137018e-01 1.038145e+02 3.960680e+01 1.368964e-05 1.617208e-05 -1.404801e-01 -4.491872e-03 2.327615e-03
9.761102e-03 2.369808e-03 -4.042384e+01 4.085389e-01 1.014697e+02 3.930635e+01 9.615430e-06 1.616205e-05 -1.019829e-01 -4.429553e-03 2.337827e-03
9.887870e-03 2.409938e-03 -3.982674e+01 4.034523e-01 9.919814e+01 3.901082e+01 5.786962e-06 1.612727e-05 -6.714357e-02 -4.365108e-03 2.342698e-03
1.001464e-02 2.449962e-03 -3.923901e+01 3.984409e-01 9.699685e+01 3.872009e+01 2.193445e-06 1.607024e-05 -3.567435e-02 -4.298868e-03 2.342744e-03
1.014140e-02 2.489882e-03 -3.866066e+01 3.935033e-01 9.486320e+01 3.843408e+01 -1.175722e-06 1.599324e-05 -7.307524e-03 -4.231140e-03 2.338442e-03
1.026817e-02 2.529697e-03 -3.809166e+01 3.886384e-01 9.279460e+01 3.815265e+01 -4.330912e-06 1.589837e-05 1.820577e-02 -4.162206e-03 2.330232e-03
1.039494e-02 2.569411e-03 -3.753198e+01 3.838451e-01 9.078859e+01 3.787572e+01 -7.282241e-06 1.578759e-05 4.109665e-02 -4.092322e-03 2.318518e-03
1.052171e-02 2.609024e-03 -3.698158e+01 3.791222e-01 8.884280e+01 3.760318e+01 -1.003954e-05 1.566267e-05 6.157951e-02 -4.021726e-03 2.303675e-03
1.064848e-02 2.648538e-03 -3.644039e+01 3.744684e-01 8.695499e+01 3.733493e+01 -1.261236e-05 1.552525e-05 7.985312e-02 -3.950632e-03 2.286044e-03
1.077524e-02 2.687955e-03 -3.590834e+01 3.698827e-01 8.512298e+01 3.707087e+01 -1.500991e-05 1.537682e-05 9.610157e-02 -3.879238e-03 2.265941e-03
1.090201e-02 2.727275e-03 -3.538536e+01 3.653638e-01 8.334470e+01 3.681091e+01 -1.724112e-05 1.521878e-05 1.104952e-01 -3.807720e-03 2.243655e-03
1.102878e-02 2.766502e-03 -3.487135e+01 3.609107e-01 8.161816e+01 3.655494e+01 -1.931456e-05 1.505237e-05 1.231916e-01 -3.736240e-03 2.219451e-03
1.115555e-02 2.805637e-03 -3.436622e+01 3.565221e-01 7.994146e+01 3.630289e+01 -2.123848e-05 1.487875e-05 1.343362e-01 -3.664944e-03 2.193571e-03
1.128231e-02 2.844681e-03 -3.386986e+01 3.521971e-01 7.831277e+01 3.605466e+01 -2.302083e-05 1.469895e-05 1.440636e-01 -3.593960e-03 2.166237e-03
1.140908e-02 2.883636e-03 -3.338217e+01 3.479344e-01 7.673034e+01 3.581016e+01 -2.466919e-05 1.451395e-05 1.524978e-01 -3.523408e-03 2.137651e-03
1.153585e-02 2.922506e-03 -3.290303e+01 3.437330e-01 7.519251e+01 3.556931e+01 -2.619086e-05 1.432460e-05 1.597531e-01 -3.453391e-03 2.107999e-03
1.166262e-02 2.961290e-03 -3.243232e+01 3.395918e-01 7.369766e+01 3.533202e+01 -2.759278e-05 1.413170e-05 1.659350e-01 -3.384002e-03 2.077449e-03
1.178938e-02 2.999992e-03 -3.196992e+01 3.355097e-01 7.224427e+01 3.509821e+01 -2.888162e-05 1.393597e-05 1.711406e-01 -3.315324e-03 2.046154e-03
1.191615e-02 3.038614e-03 -3.151571e+01 3.314858e-01 7.083085e+01 3.486781e+01 -3.006372e-05 1.373806e-05 1.754592e-01 -3.247428e-03 2.014254e-03
1.204292e-02 3.077157e-03 -3.106955e+01 3.275189e-01 6.945599e+01 3.464073e+01 -3.114513e-05 1.353856e-05 1.789731e-01 -3.180378e-03 1.981876e-03
1.216969e-02 3.115624e-03 -3.063132e+01 3.236080e-01 6.811834e+01 3.441691e+01 -3.213162e-05 1.333799e-05 1.817578e-01 -3.114228e-03 1.949133e-03
1.229645e-02 3.154016e-03 -3.020089e+01 3.197523e-01 6.681660e+01 3.419626e+01 -3.302867e-05 1.313684e-05 1.838828e-01 -3.049026e-03 1.916130e-03
1.242322e-02 3.192335e-03 -2.977812e+01 3.159506e-01 6.554952e+01 3.397872e+01 -3.384149e-05 1.293555e-05 1.854118e-01 -2.984813e-03 1.882960e-03
1.254999e-02 3.230585e-03 -2.936289e+01 3.122020e-01 6.431592e+01 3.376422e+01 -3.457505e-05 1.273450e-05 1.864034e-01 -2.921621e-03 1.849707e-03
1.267676e-02 3.268765e-03 -2.895505e+01 3.085056e-01 6.311463e+01 3.355268e+01 -3.523405e-05 1.253403e-05 1.869113e-01 -2.859479e-03 1.816449e-03
1.280352e-02 3.306879e-03 -2.855448e+01 3.048604e-01 6.194457e+01 3.334405e+01 -3.582295e-05 1.233446e-05 1.869845e-01 -2.798410e-03 1.783252e-03
1.293029e-02 3.344929e-03 -2.816104e+01 3.012655e-01 6.080468e+01 3.313825e+01 -3.634600e-05 1.213607e-05 1.866683e-01 -2.738431e-03 1.750178e-03
1.305706e-02 3.382916e-03 -2.777460e+01 2.977201e-01 5.969394e+01 3.293522e+01 -3.680721e-05 1.193909e-05 1.860038e-01 -2.679557e-03 1.717282e-03
1.318383e-02 3.420843e-03 -2.739503e+01 2.942233e-01 5.861138e+01 3.273491e+01 -3.721039e-05 1.174376e-05 1.850288e-01 -2.621796e-03 1.684611e-03
1.331059e-02 3.458711e-03 -2.702220e+01 2.907741e-01 5.755607e+01 3.253725e+01 -3.755913e-05 1.155025e-05 1.837779e-01 -2.565155e-03 1.652209e-03
1.343736e-02 3.496522e-03 -2.665598e+01 2.873718e-01 5.652711e+01 3.234219e+01 -3.785685e-05 1.135875e-05 1.822824e-01 -2.509636e-03 1.620114e-03
1.356413e-02 3.534278e-03 -2.629624e+01 2.840155e-01 5.552363e+01 3.214967e+01 -3.810678e-05 1.116938e-05 1.805713e-01 -2.455241e-03 1.588359e-03
1.369090e-02 3.571981e-03 -2.594285e+01 2.807044e-01 5.454482e+01 3.195963e+01 -3.831196e-05 1.098230e-05 1.786708e-01 -2.401965e-03 1.556974e-03
1.381766e-02 3.609633e-03 -2.559569e+01 2.774377e-01 5.358987e+01 3.177202e+01 -3.847528e-05 1.079759e-05 1.766047e-01 -2.349804e-03 1.525983e-03
1.394443e-02 3.647236e-03 -2.525463e+01 2.742146e-01 5.265802e+01 3.158678e+01 -3.859946e-05 1.061536e-05 1.743950e-01 -2.298751e-03 1.495409e-03
1.407120e-02 3.684790e-03 -2.491956e+01 2.710343e-01 5.174853e+01 3.140387e+01 -3.868708e-05 1.043568e-05 1.720615e-01 -2.248798e-03 1.465270e-03
1.419797e-02 3.722300e-03 -2.459035e+01 2.678962e-01 5.086070e+01 3.122324e+01 -3.874056e-05 1.025863e-05 1.696221e-01 -2.199933e-03 1.435582e-03
1.432473e-02 3.759765e-03 -2.426688e+01 2.647995e-01 4.999384e+01 3.104483e+01 -3.876221e-05 1.008424e-05 1.670933e-01 -2.152146e-03 1.406359e-03
1.445150e-02 3.797187e-03 -2.394903e+01 2.617433e-01 4.914730e+01 3.086861e+01 -3.875418e-05 9.912576e-06 1.644899e-01 -2.105422e-03 1.377611e-03
1.457827e-02 3.834569e-03 -2.363670e+01 2.587272e-01 4.832046e+01 3.069452e+01 -3.871852e-05 9.743654e-06 1.618254e-01 -2.059749e-03 1.349347e-03
1.470504e-02 3.871912e-03 -2.332976e+01 2.557503e-01 4.751270e+01 3.052252e+01 -3.865715e-05 9.577502e-06 1.591120e-01 -2.015110e-03 1.321573e-03
1.483180e-02 3.909217e-03 -2.302811e+01 2.528119e-01 4.672344e+01 3.035257e+01 -3.857188e-05 9.414137e-06 1.563606e-01 -1.971491e-03 1.294295e-03
1.495857e-02 3.946487e-03 -2.273163e+01 2.499115e-01 4.595213e+01 3.018462e+01 -3.846444e-05 9.253565e-06 1.535813e-01 -1.928874e-03 1.267516e-03
1.508534e-02 3.983722e-03 -2.244023e+01 2.470483e-01 4.519821e+01 3.001863e+01 -3.833641e-05 9.095789e-06 1.507830e-01 -1.887243e-03 1.241239e-03
1.521211e-02 4.020924e-03 -2.215379e+01 2.442218e-01 4.446117e+01 2.985457e+01 -3.818934e-05 8.940804e-06 1.479737e-01 -1.846580e-03 1.215462e-03
1.533888e-02 4.058096e-03 -2.187221e+01 2.414313e-01 4.374051e+01 2.969239e+01 -3.802463e-05 8.788601e-06 1.451606e-01 -1.806867e-03 1.190187e-03
1.546564e-02 4.095237e-03 -2.159540e+01 2.386761e-01 4.303573e+01 2.953205e+01 -3.784365e-05 8.639166e-06 1.423503e-01 -1.768086e-03 1.165412e-03
1.559241e-02 4.132351e-03 -2.132324e+01 2.359558e-01 4.234639e+01 2.937352e+01 -3.764764e-05 8.492481e-06 1.395485e-01 -1.730219e-03 1.141134e-03
1.571918e-02 4.169437e-03 -2.105565e+01 2.332697e-01 4.167202e+01 2.921676e+01 -3.743781e-05 8.348524e-06 1.367603e-01 -1.693248e-03 1.117351e-03
1.584595e-02 4.206498e-03 -2.079253e+01 2.306172e-01 4.101220e+01 2.906173e+01 -3.721527e-05 8.207269e-06 1.339904e-01 -1.657154e-03 1.094057e-03
1.597271e-02 4.243535e-03 -2.053378e+01 2.279977e-01 4.036649e+01 2.890841e+01 -3.698108e-05 8.068690e-06 1.312429e-01 -1.621917e-03 1.071249e-03
1.609948e-02 4.280550e-03 -2.027932e+01 2.254109e-01 3.973451e+01 2.875675e+01 -3.673622e-05 7.932755e-06 1.285212e-01 -1.587521e-03 1.048922e-03
1.622625e-02 4.317543e-03 -2.002906e+01 2.228560e-01 3.911587e+01 2.860673e+01 -3.648162e-05 7.799432e-06 1.258285e-01 -1.553945e-03 1.027069e-03
1.635302e-02 4.354516e-03 -1.978290e+01 2.203325e-01 3.851018e+01 2.845831e+01 -3.621815e-05 7.668687e-06 1.231676e-01 -1.521173e-03 1.005685e-03
1.647978e-02 4.391470e-03 -1.954077e+01 2.178400e-01 3.791708e+01 2.831145e+01 -3.594664e-05 7.540484e-06 1.205408e-01 -1.489185e-03 9.847629e-04
1.660655e-02 4.428406e-03 -1.930258e+01 2.153780e-01 3.733623e+01 2.816614e+01 -3.566785e-05 7.414785e-06 1.179502e-01 -1.457964e-03 9.642966e-04
1.673332e-02 4.465327e-03 -1.906824e+01 2.129459e-01 3.676728e+01 2.802234e+01 -3.538251e-05 7.291552e-06 1.153976e-01 -1.427491e-03 9.442789e-04
1.686009e-02 4.502232e-03 -1.883768e+01 2.105433e-01 3.620991e+01 2.788002e+01 -3.509128e-05 7.170746e-06 1.128844e-01 -1.397750e-03 9.247024e-04
1.698685e-02 4.539123e-03 -1.861082e+01 2.081697e-01 3.566381e+01 2.773915e+01 -3.479481e-05 7.052326e-06 1.104118e-01 -1.368722e-03 9.055598e-04
